{'elevation': 90.0, 'canting': 10.0, 'aspect_ratio_func': 'dsr_thurai_2007', 'K2': 0.8775475515495089, 'frequency': 35.6, 'n': (4.049782482974078+2.4190757857395004j), 'wl': 8.421136460674157, 'prefactor': 0.05339950146318931}
diameter[mm],radarXSh[mm2],radarXSv[mm2],extxs[mm2],ray[mm2],sKdp[mm2],aspect_ratio
0.01,5.3399565217719085e-14,5.3399565217719085e-14,1.272643774369687e-07,5.339950146318932e-14,1.2771551605816031e-23,1.0
0.02,3.417584138536199e-12,3.417584138536199e-12,1.0184304039812164e-06,3.4175680936441163e-12,0.0,1.0
0.03,3.892863680867054e-11,3.892863680867054e-11,3.4389842956529166e-06,3.8928236566665e-11,0.0,1.0
0.04,2.1872836862733586e-10,2.1872836862733586e-10,8.157603922374305e-06,2.1872435799322344e-10,0.0,1.0
0.05,8.343909844851485e-10,8.343909844851485e-10,1.594779247520946e-05,8.343672103623333e-10,8.17379302772226e-22,1.0
0.060000000000000005,2.4915090029517186e-09,2.4915090029517182e-09,2.758954576159705e-05,2.4914071402665617e-09,0.0,1.0
0.06999999999999999,6.28274702624211e-09,6.28274702624211e-09,4.387104454948639e-05,6.282397947642755e-09,-1.634758605544452e-21,1.0
0.08,1.3999373844775816e-08,1.3999373844775816e-08,6.559039240689214e-05,1.39983589115663e-08,0.0,1.0
0.09,2.8381291960957192e-08,2.8381291960957192e-08,9.355736394989885e-05,2.8378684457098783e-08,3.269517211088904e-21,1.0
0.09999999999999999,5.340556398073423e-08,5.340556398073423e-08,0.00012859521510960513,5.3399501463189285e-08,6.539034422177808e-21,1.0
0.11,9.461351190773967e-08,9.461351190773967e-08,0.00017154253097589198,9.460047421162912e-08,0.0,1.0
0.12,1.5947628875950583e-07,1.5947628875950583e-07,0.0002232550981179791,1.5945005697705984e-07,0.0,1.0
0.13,2.577991337532832e-07,2.577991337532832e-07,0.00028460779161893293,2.577491942580354e-07,0.0,1.0
0.14,4.021642457566976e-07,4.021642457566976e-07,0.00035649657035642294,4.020734686491368e-07,0.0,1.0
0.15000000000000002,6.084121691459094e-07,6.084121691459094e-07,0.000439840547116183,6.082536963541413e-07,-2.615613768871123e-20,1.0
0.16,8.961623246409587e-07,8.961623246409587e-07,0.0005355839104028894,8.958949703402432e-07,-2.615613768871123e-20,1.0
0.17,1.2893713750322674e-06,1.289371375032267e-06,0.0006446980255545578,1.2889341511333333e-06,-2.615613768871123e-20,1.0
0.18000000000000002,1.8169317751931496e-06,1.8169317751931496e-06,0.0007681838696135704,1.8162358052543238e-06,0.0,1.0
0.19,2.513308475926074e-06,2.513308475926074e-06,0.0009070739016943887,2.5122265912965304e-06,-5.231227537742246e-20,1.0
0.2,3.4192143772725216e-06,3.4192143772725216e-06,0.0010624343425334147,3.417568093644117e-06,-5.231227537742246e-20,1.0
0.21000000000000002,4.582324731419504e-06,4.582324731419504e-06,0.0012353678146205579,4.579868103831574e-06,0.0,1.0
0.22,6.0580329366945055e-06,6.0580329366945055e-06,0.0014270154596182484,6.0544303495442634e-06,-5.231227537742246e-20,1.0
0.23,7.910241575361181e-06,7.91024157536118e-06,0.0016385591554974675,7.90504267126003e-06,-1.0462455075484493e-19,1.0
0.24000000000000002,1.0212201220583805e-05,1.0212201220583805e-05,0.0018712247202226145,1.0204803646531837e-05,0.0,1.0
0.25,1.3047372864775966e-05,1.3047372864775966e-05,0.00212628362660874,1.3036987661911452e-05,0.0,1.0
0.26,1.6510349871781367e-05,1.6510349871781367e-05,0.002405056214848709,1.6495948432514264e-05,1.0462455075484493e-19,1.0
0.27,2.0707813595278764e-05,2.0707813595278764e-05,0.0027089141139923162,2.0688060969225026e-05,-1.0462455075484493e-19,1.0
0.28,2.5759509432811286e-05,2.5759509432811286e-05,0.0030392832876708453,2.5732701993544756e-05,0.0,1.0
0.29000000000000004,3.17993016635833e-05,3.17993016635833e-05,0.0033976463793580717,3.1763268800078645e-05,-2.0924910150968985e-19,1.0
0.3,3.897624223353114e-05,3.897624223353114e-05,0.0037855460617912534,3.8928236566665e-05,0.0,1.0
0.31,4.745566880551849e-05,4.745566880551848e-05,0.004204587884301399,4.73922541121454e-05,0.0,1.0
0.32,5.742040178841308e-05,5.742040178841308e-05,0.00465644296966443,5.7337278101775566e-05,0.0,1.0
0.33,6.907190050324194e-05,6.907190050324194e-05,0.005142852174399051,6.896374570027765e-05,-2.0924910150968985e-19,1.0
0.34,8.263155116559789e-05,8.263155116559789e-05,0.005665627662039198,8.249178567253333e-05,-2.0924910150968985e-19,1.0
0.35000000000000003,9.834190546855625e-05,9.834190546855625e-05,0.0062266584220626925,9.816246793191818e-05,0.0,1.0
0.36000000000000004,0.00011646805651629842,0.00011646805651629842,0.006827909999715063,0.00011623909153627672,0.0,1.0
0.37,0.00013729900317366282,0.00013729900317366282,0.007471433247262628,0.00013700851113153894,0.0,1.0
0.38,0.00016114902573595379,0.00016114902573595379,0.008159363045400509,0.00016078250184297795,-4.184982030193797e-19,1.0
0.39,0.0001883592468137162,0.0001883592468137162,0.008893923482419722,0.0001878991626141078,0.0,1.0
0.4,0.00021929904421233995,0.00021929904421233995,0.009677433568216758,0.0002187243579932235,0.0,1.0
0.41000000000000003,0.0002543676667904206,0.0002543676667904206,0.010512307957391807,0.0002536531983675813,0.0,1.0
0.42000000000000004,0.00029399584634863475,0.00029399584634863475,0.011401061981139474,0.0002931115586452207,0.0,1.0
0.43,0.00033864745730170814,0.00033864745730170814,0.012346316998391017,0.0003375576353844263,-4.184982030193797e-19,1.0
0.44,0.0003888212610792552,0.0003888212610792552,0.013350803030178134,0.00038748354237083286,0.0,1.0
0.45,0.0004450526100502583,0.0004450526100502583,0.014417362505868793,0.0004434169446421686,0.0,1.0
0.46,0.0005079152502628084,0.0005079152502628084,0.01554895562208869,0.000505922730960642,0.0,1.0
0.47000000000000003,0.0005780233394294154,0.0005780233394294154,0.016748663719451554,0.0005756047247329684,4.184982030193797e-19,1.0
0.48000000000000004,0.0006560333193813275,0.0006560333193813275,0.018019693529312944,0.0006531074333780376,-8.369964060387594e-19,1.0
0.49,0.0007426456532754331,0.0007426456532754331,0.019365386230801886,0.0007391178361422229,0.0,1.0
0.5,0.0008386075589264074,0.0008386075589264074,0.020789211845963475,0.0008343672103623329,0.0,1.0
0.51,0.000944714154584673,0.000944714154584673,0.022294784578472424,0.0009396329961761997,0.0,1.0
0.52,0.001061811872420687,0.001061811872420687,0.023885863629889845,0.001055740699680913,8.369964060387594e-19,1.0
0.53,0.001190799442332988,0.001190799442332988,0.025566353746306867,0.001183565834538692,0.0,1.0
0.54,0.0013326311135702558,0.0013326311135702558,0.0273403176300988,0.0013240359020304016,0.0,1.0
0.55,0.0014883186500512108,0.0014883186500512108,0.029211973286357176,0.0014781324095567057,1.6739928120775188e-18,1.0
0.56,0.0016589343046083825,0.0016589343046083825,0.031185707660914972,0.0016468929275868644,0.0,1.0
0.5700000000000001,0.0018456126394605734,0.0018456126394605728,0.03326607230038533,0.0018314131850551715,0.0,1.0
0.5800000000000001,0.002049553964441366,0.002049553964441366,0.03545779867875625,0.0020328492032050333,0.0,1.0
0.59,0.002272026230449077,0.002272026230449077,0.03776579043007331,0.0022524194678806846,-2.510989218116278e-18,1.0
0.6,0.0025143690928931843,0.0025143690928931834,0.04019514412233424,0.00249140714026656,2.510989218116278e-18,1.0
0.61,0.0027779956294624545,0.0027779956294624545,0.042751139500149575,0.00275116230607428,0.0,1.0
0.62,0.0030643960032492082,0.0030643960032492082,0.04543925878214445,0.0030331042631773055,0.0,1.0
0.63,0.003375141018468837,0.003375141018468837,0.048265178909930095,0.003338723847693216,1.6739928120775188e-18,1.0
0.64,0.0037118831437947235,0.0037118831437947235,0.05123478540154153,0.0036695857985136362,0.0,1.0
0.65,0.004076365317897865,0.0040763653178978645,0.05435417250655409,0.004027331160281803,1.6739928120775188e-18,1.0
0.66,0.004470416677345055,0.004470416677345055,0.057629662990000205,0.004413679724817769,0.0,1.0
0.67,0.004895963315390217,0.004895963315390217,0.06106778362414925,0.0048304325109912545,0.0,1.0
0.68,0.0053550282051497014,0.0053550282051497014,0.06467530767625537,0.005279474283042133,-1.6739928120775188e-18,1.0
0.6900000000000001,0.00584973576673918,0.00584973576673918,0.06845922644754293,0.005762776107348565,0.0,1.0
0.7000000000000001,0.006411032585006987,0.006411032585006987,0.07260155933768735,0.006282397947642763,-1.6739928120775188e-18,0.9944380500000001
0.7100000000000001,0.0069900757476145745,0.0069900757476145745,0.0767889888219439,0.0068404912986744105,5.021978436232556e-18,0.9938143084150001
0.72,0.0076124640312380185,0.007612464031238016,0.08117632286301034,0.007439301858321703,0.0,0.9932232806400001
0.73,0.008280815145679035,0.008280815145679033,0.08577153904955194,0.008081172238150077,1.6739928120775188e-18,0.9926640306150001
0.74,0.008997869568459896,0.008997869568459896,0.09058285186746205,0.008768544712418492,-3.3479856241550376e-18,0.9921356202399999
0.75,0.009766502793467543,0.009766502793467538,0.0956187553213688,0.009503964005533449,-3.3479856241550376e-18,0.991637109375
0.76,0.010589720967769486,0.010589720967769483,0.1008879937570887,0.010290080117950589,3.3479856241550376e-18,0.99116755584
0.77,0.01147067620607394,0.011470676206073935,0.10639960319901189,0.011129651190523955,3.3479856241550376e-18,0.990726015415
0.78,0.012412662135452895,0.01241266213545289,0.11216288803258988,0.0120255464073029,0.0,0.9903115418399999
0.79,0.013419125935141702,0.013419125935141702,0.11818742528161856,0.012980748936776608,3.3479856241550376e-18,0.989923186815
0.8,0.014493679899760423,0.014493679899760423,0.12448309207406319,0.013998358911566304,-3.3479856241550376e-18,0.9895600000000001
0.81,0.015640095767157,0.015640095767156994,0.13106002827305702,0.015081596446565043,0.0,0.9892210290150001
0.8200000000000001,0.016862316008294822,0.016862316008294815,0.13792870108527183,0.016233804695525204,3.3479856241550376e-18,0.9889053194399999
0.8300000000000001,0.018164467178103987,0.018164467178103973,0.14509985562182698,0.017458452946093585,1.0043956872465113e-17,0.9886119148149999
0.8400000000000001,0.019550857477766463,0.01955085747776646,0.15258452545909973,0.018759139753294126,6.695971248310075e-18,0.9883398566399999
0.85,0.02102599900286733,0.021025999002867325,0.1603940453231831,0.020139596111458324,0.0,0.988088184375
0.86,0.02259459426094109,0.022594594260941073,0.16854007343647606,0.02160368866460328,3.3479856241550376e-18,0.98785593544
0.87,0.02426156586522396,0.024261565865223957,0.17703455467431142,0.023155422955257316,1.339194249662015e-17,0.987642145215
0.88,0.026032051966327727,0.026032051966327716,0.18588974243748208,0.024798946711733303,-1.339194249662015e-17,0.98744584704
0.89,0.02791142181587189,0.02791142181587189,0.1951181917324204,0.026538553173849632,1.6739928120775187e-17,0.9872660722150002
0.9,0.029905286777753046,0.029905286777753035,0.20473277047536773,0.02837868445709879,0.0,0.9871018500000002
0.91,0.03201950188013058,0.032019501880130564,0.2147466530292879,0.030323934955263605,2.3435899369085263e-17,0.986952207615
0.92,0.03426018459401784,0.034260184594017834,0.2251732921119671,0.032379054781481086,3.3479856241550376e-18,0.9868161702400001
0.93,0.03663372659465513,0.03663372659465513,0.23602649155916397,0.034548953247754005,0.0,0.9866927610150001
0.9400000000000001,0.03914679097807137,0.03914679097807134,0.2473203163801637,0.036838702382909976,-6.695971248310075e-18,0.9865810010400001
0.9500000000000001,0.04180634332026511,0.041806343320265074,0.25906915223229215,0.0392535404890083,3.3479856241550376e-18,0.9864799093750001
0.9600000000000001,0.04461966012970719,0.04461966012970717,0.27128766791318915,0.0417988757361944,6.695971248310075e-18,0.9863885030400001
0.97,0.04759432615351774,0.047594326153517726,0.2839908375890072,0.044480289796001854,2.0087913744930225e-17,0.9863057970150001
0.98,0.050738268962368195,0.050738268962368174,0.2971939036972237,0.04730354151310227,2.0087913744930225e-17,0.98623080424
0.99,0.05405974513000837,0.05405974513000835,0.3109123911231349,0.05027457061550239,6.695971248310075e-18,0.986162535615
1.0,0.05756740138962959,0.05756740138962955,0.32516213836025115,0.05339950146318931,6.695971248310075e-18,0.9861000000000001
1.01,0.06127022405348237,0.06127022405348234,0.3399592131062689,0.05668464683522304,0.0,0.986042204215
1.02,0.06517762864893885,0.06517762864893883,0.3553199416028417,0.06013651175527678,6.695971248310075e-18,0.98598815304
1.03,0.06929939887010918,0.06929939887010916,0.3712609643676248,0.0637617973556249,0.0,0.9859368492149999
1.04,0.07364577067776426,0.07364577067776423,0.38779908802227386,0.06756740477957843,6.695971248310075e-18,0.98588729344
1.05,0.07822740684593135,0.07822740684593131,0.40495143218094765,0.07156043912236833,-6.695971248310075e-18,0.9858384843750001
1.06,0.0830554155514672,0.08305541555146716,0.4227352824035696,0.07574821341047629,2.0087913744930225e-17,0.9857894186399999
1.07,0.08814139560023913,0.08814139560023912,0.4411682138987387,0.0801382526194133,0.0,0.985739090815
1.08,0.09349744257142473,0.09349744257142473,0.4602679356005034,0.0847382977299457,2.67838849932403e-17,0.98568649344
1.09,0.09913613747942714,0.09913613747942714,0.4800524315277886,0.08955630982276896,1.339194249662015e-17,0.985630617015
1.1,0.10507059241462849,0.10507059241462845,0.5005398014790878,0.09460047421162916,6.695971248310075e-18,0.98557045
1.11,0.11131449160910555,0.11131449160910546,0.5217484198872058,0.09987920461489194,2.0087913744930225e-17,0.985504978815
1.12,0.1178820595042438,0.1178820595042438,0.5436966867754413,0.10540114736555932,2.0087913744930225e-17,0.9854331878400002
1.1300000000000001,0.12478811491272805,0.12478811491272797,0.566403316388974,0.11117518565973392,1.339194249662015e-17,0.9853540594150003
1.1400000000000001,0.13204807479681738,0.13204807479681727,0.5898870509569499,0.11721044384353098,2.0087913744930225e-17,0.9852665738400002
1.1500000000000001,0.13967797105060772,0.13967797105060759,0.6141667925683404,0.12351629173843806,-1.339194249662015e-17,0.9851697093749999
1.1600000000000001,0.147694495345637,0.14769449534563692,0.6392616197150187,0.13010234900512213,1.339194249662015e-17,0.9850624422400003
1.17,0.15611497577874225,0.15611497577874225,0.6651906840558799,0.1369784895456845,-6.695971248310075e-18,0.9849437466150002
1.18,0.1649574608865638,0.1649574608865637,0.6919732289832704,0.1441548459443638,0.0,0.98481259464
1.19,0.17424063964537478,0.1742406396453747,0.7196285872712165,0.15164181394668544,6.695971248310075e-18,0.9846679564149999
1.2,0.1839839810825726,0.18398398108257255,0.7481762144006668,0.15945005697705983,-2.67838849932403e-17,0.9845088000000001
1.21,0.194207609667904,0.1942076096679039,0.7776356042370017,0.16759051069482786,1.339194249662015e-17,0.984334091415
1.22,0.20493247662161224,0.20493247662161215,0.8080263449197532,0.17607438758875393,-1.339194249662015e-17,0.9841427946400002
1.23,0.21618029129645916,0.216180291296459,0.8393680579054721,0.18491318160996673,1.339194249662015e-17,0.9839338716150001
1.24,0.22797349657686306,0.22797349657686297,0.8716804894606515,0.19411867284334755,0.0,0.9837062822400001
1.25,0.2403353720682065,0.24033537206820632,0.9049834169586668,0.20370293221736643,-2.67838849932403e-17,0.9834589843749999
1.26,0.25329001353836655,0.2532900135383665,0.9392966201332372,0.21367832625236582,0.0,0.9831909338400001
1.27,0.2668623496439371,0.26686234964393696,0.9746399075751762,0.22405752184729166,0.0,0.9829010844150002
1.28,0.2810780972089317,0.2810780972089316,1.0110333297293306,0.23485349110487272,2.67838849932403e-17,0.98258838784
1.29,0.2959639518282448,0.2959639518282446,1.0484968184995547,0.24607951619524682,1.339194249662015e-17,0.9822517938149999
1.3,0.31154737646267805,0.31154737646267794,1.0870504793715892,0.2577491942580354,0.0,0.9818902499999999
1.31,0.3278567270272025,0.32785672702720225,1.1267143891783056,0.269876442342865,0.0,0.9815027020150001
1.32,0.3449212702396032,0.3449212702396029,1.1675087115893497,0.28247550238833724,-2.67838849932403e-17,0.9810880934400001
1.33,0.3627710734838294,0.36277107348382914,1.2094539121621617,0.29556094623944557,2.67838849932403e-17,0.980645365815
1.34,0.38143725812079987,0.38143725812079954,1.2525703281333065,0.3091476807034403,1.339194249662015e-17,0.9801734586399999
1.35,0.4009516454366148,0.40095164543661466,1.296878569637373,0.323250952644141,4.017582748986045e-17,0.9796713093750001
1.36,0.42134719530081116,0.421347195300811,1.3423991744169792,0.33788635411469653,0.0,0.9791378534400004
1.37,0.4426575859840738,0.4426575859840734,1.3891531764744358,0.35306982752879285,2.67838849932403e-17,0.9785720242150001
1.3800000000000001,0.46491752986861745,0.4649175298686172,1.4371615941602764,0.36881767087030815,4.017582748986045e-17,0.9779727530399999
1.3900000000000001,0.48816251764173074,0.4881625176417304,1.4864456864101563,0.3851465429414162,4.017582748986045e-17,0.9773389692150002
1.4000000000000001,0.512429100656962,0.5124291006569617,1.537026962774036,0.40207346864913684,8.03516549797209e-17,0.9766696
1.4100000000000001,0.5377545388480192,0.5377545388480188,1.5889271574485064,0.419615844330334,-1.339194249662015e-17,0.9759635706149999
1.42,0.5641771049097386,0.5641771049097382,1.6421683870438135,0.43779144311516177,4.017582748986045e-17,0.9752198042400002
1.43,0.5917359050327755,0.5917359050327752,1.6967731786320746,0.45661842032895916,2.67838849932403e-17,0.9744372220149999
1.44,0.6204710850574264,0.6204710850574261,1.7527641945901327,0.476115318932589,2.67838849932403e-17,0.9736147430400003
1.45,0.6504234906092327,0.6504234906092325,1.810164701227571,0.4963010750012284,6.695971248310075e-17,0.9727512843750001
1.46,0.6816347394219556,0.6816347394219552,1.8689982170536585,0.5171950232416049,4.017582748986045e-17,0.9718457610400001
1.47,0.7141474842549126,0.714147484254912,1.929289001596181,0.5388169025476804,5.35677699864806e-17,0.9708970860149999
1.48,0.7480051451626278,0.7480051451626272,1.9910616934151446,0.5611868615947835,8.03516549797209e-17,0.96990417024
1.49,0.7832520043311159,0.7832520043311153,2.0543412966000996,0.584325464472188,0.0,0.968865922615
1.5,0.8225073728072376,0.8225073728072366,2.1218028258477384,0.6082536963541407,4.017582748986045e-17,0.9646504406249999
1.51,0.8604192058738941,0.8604192058738931,2.1879078030435024,0.6329929692093359,9.374359747634105e-17,0.9639518083123905
1.52,0.8997833374452575,0.8997833374452568,2.2555258172297568,0.6585651275488377,8.03516549797209e-17,0.9632529599508479
1.53,0.9406374689102107,0.9406374689102099,2.324675867970497,0.6849924542124497,5.35677699864806e-17,0.9625538986474304
1.54,0.9830195389519893,0.9830195389519882,2.395376884205881,0.7122976761935331,1.071355399729612e-16,0.961854627499368
1.55,1.0269671460043903,1.0269671460043894,2.467647837972421,0.7405039705022719,-2.67838849932403e-17,0.9611551495940623
1.56,1.0725179166784173,1.0725179166784162,2.541507584868347,0.7696349700673856,5.35677699864806e-17,0.9604554680090879
1.57,1.1197085702149283,1.1197085702149272,2.6169749581412494,0.7997147696762892,1.071355399729612e-16,0.9597555858121904
1.58,1.1685761264596877,1.168576126459686,2.694068744767025,0.8307679319537029,8.03516549797209e-17,0.959055506061288
1.59,1.2191562627199648,1.2191562627199632,2.7728077118592345,0.8628194933787066,0.0,0.9583552318044705
1.6,1.2714851257707247,1.271485125770723,2.8532102810051763,0.8958949703402435,1.071355399729612e-16,0.95765476608
1.61,1.3255972944346166,1.325597294434615,2.9352951070695705,0.9300203652310717,1.071355399729612e-16,0.9569541119163105
1.62,1.3815267865650989,1.381526786565097,3.0190801197777386,0.9652221725801627,1.339194249662015e-16,0.9562532723320079
1.6300000000000001,1.4393072018727833,1.439307201872782,3.1045833844910717,1.0015273852235484,0.0,0.9555522503358704
1.6400000000000001,1.4989710221633992,1.498971022163398,3.191822846497123,1.038963500513613,8.03516549797209e-17,0.9548510489268479
1.6500000000000001,1.5605491575825012,1.5605491575824992,3.2808157929537285,1.0775585265668386,1.339194249662015e-16,0.9541496710940625
1.6600000000000001,1.624072146615435,1.6240721466154335,3.3715792225040233,1.1173409885499894,8.03516549797209e-17,0.953448119816808
