{'elevation': 90.0, 'canting': 10.0, 'aspect_ratio_func': 'dsr_thurai_2007', 'K2': 0.9287969731779052, 'frequency': 9.6, 'n': (7.799630675745488+2.423234751141455j), 'wl': 31.22838104166667, 'prefactor': 0.00029886308515174494}
diameter[mm],radarXSh[mm2],radarXSv[mm2],extxs[mm2],ray[mm2],sKdp[mm2],aspect_ratio
0.01,2.988622252496058e-16,2.988622252496058e-16,7.669108102960268e-09,2.98863085151745e-16,0.0,1.0
0.02,1.9127020398572818e-14,1.9127020398572818e-14,6.136280943359942e-08,1.912723744971168e-14,-1.1840292634558614e-23,1.0
0.03,2.1786559713043462e-13,2.1786559713043462e-13,2.071554764518962e-07,2.1787118907562202e-13,0.0,1.0
0.04,1.2240872058683106e-12,1.2240872058683106e-12,4.912211644105243e-07,1.2241431967815476e-12,0.0,1.0
0.05,4.66940207426377e-12,4.66940207426377e-12,9.598838410732741e-07,4.669735705496017e-12,0.0,1.0
0.060000000000000005,1.3942322659082313e-11,1.3942322659082313e-11,1.6596673693190746e-06,1.3943756100839819e-11,3.7888936430587565e-22,1.0
0.06999999999999999,3.5156020661078204e-11,3.5156020661078204e-11,2.63734665930863e-06,3.516094310501762e-11,0.0,1.0
0.08,7.833082942994045e-11,7.833082942994045e-11,3.939997476635663e-06,7.834516459401904e-11,-7.577787286117513e-22,1.0
0.09,1.587913172941039e-10,1.587913172941039e-10,5.615048937072231e-06,1.5882809683612845e-10,0.0,1.0
0.09999999999999999,2.9877767193245173e-10,2.9877767193245173e-10,7.710333462257252e-06,2.988630851517448e-10,0.0,1.0
0.11,5.292710325715998e-10,5.292710325715998e-10,1.0274139073250402e-05,5.294541859945105e-10,0.0,1.0
0.12,8.920330681496499e-10,8.920330681496499e-10,1.3355261448924774e-05,8.924003904537478e-10,0.0,1.0
0.13,1.4418579716639866e-09,1.4418579716639864e-09,1.7003055595202724e-05,1.4425550291782093e-09,-3.0311149144470052e-21,1.0
0.14,2.249039382955567e-09,2.249039382955567e-09,2.126749271241332e-05,2.2503003587211303e-09,-3.0311149144470052e-21,1.0
0.15000000000000002,3.4020473261290786e-09,3.4020473261290786e-09,2.619920361491635e-05,3.4042373293065978e-09,0.0,1.0
0.16,5.010420323273451e-09,5.010420323273449e-09,3.184954571859541e-05,5.014090534017219e-09,-1.2124459657788021e-20,1.0
0.17,7.207866518770699e-09,7.207866518770699e-09,3.82706411580745e-05,7.2138283394031215e-09,6.0622298288940105e-21,1.0
0.18000000000000002,1.0155579393603321e-08,1.0155579393603321e-08,4.551545266223732e-05,1.0164998197512231e-08,1.2124459657788021e-20,1.0
0.19,1.404575971185055e-08,1.404575971185055e-08,5.363781004939844e-05,1.406027713934186e-08,0.0,1.0
0.2,1.9105353421646216e-08,1.9105353421646216e-08,6.269249829343192e-05,1.9127237449711685e-08,0.0,1.0
0.21000000000000002,2.5599991458364575e-08,2.5599991458364575e-08,7.273528645216429e-05,2.5632327523557873e-08,0.0,1.0
0.22,3.383814675059561e-08,3.383814675059561e-08,8.382299660950538e-05,3.388506790364867e-08,0.0,1.0
0.23,4.417549904155068e-08,4.417549904155068e-08,9.601356020694368e-05,4.424246249972127e-08,0.0,1.0
0.24000000000000002,5.701949488937485e-08,5.701949488937485e-08,0.00010936607778760761,5.71136249890399e-08,0.0,1.0
0.25,7.283411889905921e-08,7.283411889905921e-08,0.00012394087347112928,7.296462039837523e-08,0.0,1.0
0.26,9.214490578159013e-08,9.214490578159013e-08,0.0001397995415725412,9.23235218674054e-08,0.0,1.0
0.27,1.155440759011487e-07,1.155440759011487e-07,0.0001570050558766267,1.157856825935377e-07,2.4248919315576042e-20,1.0
0.28,1.4369599688252196e-07,1.4369599688252196e-07,0.0001756217507138778,1.4401922295815234e-07,0.0,1.0
0.29000000000000004,1.773427016671265e-07,1.773427016671265e-07,0.00019571544512983252,1.7777073283426683e-07,2.4248919315576042e-20,1.0
0.3,2.1730975102877903e-07,2.1730975102877903e-07,0.0002173535091568194,2.1787118907562202e-07,-4.8497838631152084e-20,1.0
0.31,2.6451214908413096e-07,2.6451214908413085e-07,0.0002406048738474677,2.6524208818719006e-07,4.8497838631152084e-20,1.0
0.32,3.1996070280188473e-07,3.1996070280188473e-07,0.0002655401351877352,3.20901794177102e-07,-4.8497838631152084e-20,1.0
0.33,3.847681770044215e-07,3.847681770044215e-07,0.00029223156661609676,3.859721015899982e-07,0.0,1.0
0.34,4.601560783254754e-07,4.601560783254754e-07,0.00032075333005565957,4.616850137217998e-07,0.0,1.0
0.35000000000000003,5.474615495596268e-07,5.474615495596268e-07,0.0003511813197037564,5.493897360159009e-07,0.0,1.0
0.36000000000000004,6.481438837439385e-07,6.481438837439385e-07,0.00038359342270996696,6.505598846407828e-07,0.0,1.0
0.37,7.637923954977892e-07,7.637923954977892e-07,0.000418069489509357,7.668009102490476e-07,0.0,1.0
0.38,8.961334184335559e-07,8.961334184335559e-07,0.00045469143321859437,8.99857736917879e-07,0.0,1.0
0.39,1.047037360519999e-06,1.047037360519999e-06,0.0004935432793910922,1.0516226162709145e-06,0.0,1.0
0.4,1.2185276176220445e-06,1.2185276176220442e-06,0.0005347112257164913,1.2241431967815478e-06,0.0,1.0
0.41000000000000003,1.412787650401208e-06,1.412787650401208e-06,0.0005782837827596886,1.4196308082576482e-06,0.0,1.0
0.42000000000000004,1.632169741716701e-06,1.6321697417167005e-06,0.0006243517873482083,1.6404689615077039e-06,0.0,1.0
0.43,1.8792021390658835e-06,1.8792021390658835e-06,0.0006730084821353752,1.8892220631883807e-06,0.0,1.0
0.44,2.1565992173961034e-06,2.1565992173961034e-06,0.0007243496679207813,2.168644345833515e-06,0.0,1.0
0.45,2.467269289364209e-06,2.467269289364209e-06,0.0007784735781143489,2.4816890130645076e-06,0.0,1.0
0.46,2.8143227941661067e-06,2.8143227941661076e-06,0.0008354812031063127,2.8315175999821613e-06,0.0,1.0
0.47000000000000003,3.2010834923982893e-06,3.2010834923982893e-06,0.0008954762639982702,3.2215095487399226e-06,-1.9399135452460833e-19,1.0
0.48000000000000004,3.631094520368322e-06,3.631094520368322e-06,0.0009585651730524884,3.6552719992985534e-06,-1.9399135452460833e-19,1.0
0.49,4.108131844963801e-06,4.108131844963801e-06,0.0010248574176585537,4.13664979536222e-06,0.0,1.0
0.5,4.636209242356444e-06,4.636209242356444e-06,0.001094465236270602,4.669735705496015e-06,-1.9399135452460833e-19,1.0
0.51,5.219592506929605e-06,5.219592506929605e-06,0.001167504148029228,5.258880859424874e-06,-1.9399135452460833e-19,1.0
0.52,5.8628054199298595e-06,5.8628054199298595e-06,0.0012440926418270286,5.908705399513945e-06,1.9399135452460833e-19,1.0
0.53,6.570644174702789e-06,6.570644174702789e-06,0.0013243525207140294,6.6241093474303545e-06,0.0,1.0
0.54,7.348183186305278e-06,7.348183186305278e-06,0.0014084088358854536,7.410283685986413e-06,5.81974063573825e-19,1.0
0.55,8.200788142261208e-06,8.200788142261208e-06,0.001496390270682766,8.272721656164229e-06,0.0,1.0
0.56,9.134126841617851e-06,9.134126841617851e-06,0.0015884286378896931,9.21723026932175e-06,3.8798270904921667e-19,1.0
0.5700000000000001,1.0154178924463082e-05,1.0154178924463082e-05,0.0016846595549643312,1.0249942034580222e-05,0.0,1.0
0.5800000000000001,1.1267246693797262e-05,1.1267246693797262e-05,0.001785222576503025,1.1377326901393077e-05,-3.8798270904921667e-19,1.0
0.59,1.2479968803399505e-05,1.2479968803399505e-05,0.001890260440267126,1.2606204417296222e-05,-3.8798270904921667e-19,1.0
0.6,1.379932352692672e-05,1.379932352692672e-05,0.0019999204701737295,1.394375610083981e-05,0.0,1.0
0.61,1.5232652061046331e-05,1.5232652061046326e-05,0.002114353464824552,1.539753802970132e-05,0.0,1.0
0.62,1.6787660800341173e-05,1.6787660800341173e-05,0.002233714491868163,1.6975493643980164e-05,0.0,1.0
0.63,1.847244200108934e-05,1.847244200108934e-05,0.002358162914764393,1.868596676467368e-05,0.0,1.0
0.64,2.0295469752458457e-05,2.0295469752458457e-05,0.0024878620754113603,2.053771482733453e-05,7.759654180984333e-19,1.0
0.65,2.2265627585866672e-05,2.2265627585866675e-05,0.0026229803266224747,2.2539922330909515e-05,-7.759654180984333e-19,1.0
0.66,2.4392218259974726e-05,2.4392218259974726e-05,0.0027636896297232095,2.4702214501759886e-05,3.8798270904921667e-19,1.0
0.67,2.668497265140843e-05,2.668497265140843e-05,0.0029101677515861626,2.703467117286294e-05,3.8798270904921667e-19,1.0
0.68,2.9154053970262994e-05,2.9154053970262994e-05,0.0030625960681943563,2.9547840878195186e-05,-3.8798270904921667e-19,1.0
0.6900000000000001,3.181008541524307e-05,3.181008541524307e-05,0.003221161682105498,3.225275516229681e-05,0.0,1.0
0.7000000000000001,3.480475232579099e-05,3.4804752325790974e-05,0.0033953953214379807,3.516094310501766e-05,0.0,0.9944380500000001
0.7100000000000001,3.789829605816485e-05,3.789829605816485e-05,0.0035682868186318155,3.828444606144455e-05,-2.3278962542953e-18,0.9938143084150001
0.72,4.1216520553738766e-05,4.121652055373876e-05,0.003747942359555909,4.163583261701006e-05,-3.8798270904921667e-19,0.9932232806400001
0.73,4.477213940456798e-05,4.477213940456798e-05,0.003934567034997132,4.522821375778284e-05,1.16394812714765e-18,0.9926640306150001
0.74,4.85784151022192e-05,4.857841510221918e-05,0.004128370883337634,4.907525825593905e-05,0.0,0.9921356202399999
0.75,5.264911779870359e-05,5.264911779870357e-05,0.004329570252217136,5.319120827041554e-05,1.5519308361968667e-18,0.991637109375
0.76,5.6998584019878796e-05,5.6998584019878796e-05,0.0045383867261612944,5.759089516274426e-05,0.0,0.99116755584
0.77,6.164167710973963e-05,6.16416771097396e-05,0.004755047766069014,6.228975552806817e-05,7.759654180984333e-19,0.990726015415
0.78,6.659386385136661e-05,6.65938638513666e-05,0.004979786827767302,6.730384744133853e-05,2.3278962542953e-18,0.9903115418399999
0.79,7.18711981807515e-05,7.187119818075149e-05,0.005212843581784112,7.264986691869365e-05,7.759654180984333e-19,0.989923186815
0.8,7.749032234689995e-05,7.749032234689992e-05,0.005454464722267218,7.834516459401906e-05,-1.5519308361968667e-18,0.9895600000000001
0.81,8.346850265614608e-05,8.346850265614608e-05,0.005704902521044657,8.440776261068899e-05,2.3278962542953e-18,0.9892210290150001
0.8200000000000001,8.982362009352446e-05,8.982362009352442e-05,0.005964416214347535,9.085637172848949e-05,-1.5519308361968667e-18,0.9889053194399999
0.8300000000000001,9.657422221206717e-05,9.657422221206713e-05,0.006233272155626561,9.771040864572278e-05,3.8798270904921664e-18,0.9886119148149999
0.8400000000000001,0.00010373951441388366,0.00010373951441388363,0.00651174335220302,0.00010499001353649305,7.759654180984333e-19,0.9883398566399999
0.85,0.00011133934016120237,0.00011133934016120237,0.006800110338131547,0.00011271606780317372,3.1038616723937334e-18,0.988088184375
0.86,0.00011939428890883929,0.00011939428890883925,0.007098661288649162,0.00012091021204405636,2.3278962542953e-18,0.98785593544
0.87,0.00012792561835863394,0.00012792561835863394,0.0074076905297300625,0.00012959486423618044,-2.3278962542953e-18,0.987642145215
0.88,0.00013695531632397176,0.0001369553163239717,0.007727502481900131,0.00013879323813334495,0.0,0.98744584704
0.89,0.00014650611629741907,0.00014650611629741898,0.008058406569596046,0.00014852936187930148,2.3278962542953e-18,0.9872660722150002
0.9,0.00015660149883586752,0.0001566014988358675,0.00840072308603148,0.0001588280968361285,3.8798270904921664e-18,0.9871018500000002
0.91,0.00016726572093148044,0.00016726572093148039,0.00875477959094186,0.00016971515662778713,-1.5519308361968667e-18,0.986952207615
0.92,0.00017852379917112921,0.00017852379917112913,0.009120911272644546,0.00018121712639885832,-7.759654180984333e-19,0.9868161702400001
0.93,0.00019040161950697047,0.0001904016195069704,0.009499462836594707,0.0001933614822884616,0.0,0.9866927610150001
0.9400000000000001,0.0002029257948538131,0.00020292579485381302,0.009890788480645828,0.00020617661111935504,-1.5519308361968667e-18,0.9865810010400001
0.9500000000000001,0.00021612393506814022,0.00021612393506814014,0.010295251116628667,0.00021969183030221665,1.5519308361968667e-18,0.9864799093750001
0.9600000000000001,0.000230024319144271,0.0002300243191442709,0.010713222096928793,0.00023393740795510742,1.5519308361968667e-18,0.9863885030400001
0.97,0.00024465621703977385,0.00024465621703977374,0.011145083792881918,0.0002489445832381154,-1.5519308361968667e-18,0.9863057970150001
0.98,0.00026004982492117796,0.00026004982492117785,0.011591226843255097,0.0002647455869031821,0.0,0.98623080424
0.99,0.00027623618817736005,0.0002762361881773599,0.012052054501308333,0.0002813736620591086,3.1038616723937334e-18,0.986162535615
1.0,0.00029324731843782467,0.0002932473184378245,0.01252797565841383,0.00029886308515174494,6.207723344787467e-18,0.9861000000000001
1.01,0.00031111620603691036,0.00031111620603691025,0.01301941472531218,0.0003172491871593598,1.5519308361968667e-18,0.986042204215
1.02,0.0003298767456952856,0.0003298767456952856,0.013526804653636662,0.00033656837500319194,1.5519308361968667e-18,0.98598815304
1.03,0.00034956396193166014,0.0003495639619316601,0.014050586826815559,0.00035685815317318317,0.0,0.9859368492149999
1.04,0.0003702138198810143,0.00037021381988101414,0.014591218717135842,0.0003781571455688925,-1.5519308361968667e-18,0.98588729344
1.05,0.0003918633514582718,0.00039186335145827166,0.015149165855480751,0.0004005051175555917,4.6557925085906e-18,0.9858384843750001
1.06,0.0004145506908415206,0.00041455069084152035,0.015724905555740923,0.0004239429982355427,0.0,0.9857894186399999
1.07,0.0004383150148856034,0.0004383150148856034,0.01631892875333607,0.00044851290293445597,1.5519308361968667e-18,0.985739090815
1.08,0.0004631966473115535,0.0004631966473115535,0.0169317360756403,0.00047425815590313044,3.1038616723937334e-18,0.98568649344
1.09,0.0004892370701992636,0.0004892370701992634,0.017563844590695103,0.0005012233132342749,3.1038616723937334e-18,0.985630617015
1.1,0.0005164790302463812,0.000516479030246381,0.018215778722754202,0.0005294541859945106,1.5519308361968667e-18,0.98557045
1.11,0.0005449662869614455,0.0005449662869614454,0.018888080473478466,0.000558997863571556,7.759654180984333e-18,0.985504978815
1.12,0.0005747439676264585,0.0005747439676264582,0.01958130258882423,0.000589902737236592,7.759654180984333e-18,0.9854331878400002
1.1300000000000001,0.0006058585583028123,0.0006058585583028122,0.020296012087813023,0.0006222185239218086,6.207723344787467e-18,0.9853540594150003
1.1400000000000001,0.0006383575387506879,0.0006383575387506876,0.02103278876669846,0.0006559962902131342,3.1038616723937334e-18,0.9852665738400002
1.1500000000000001,0.0006722900963164328,0.0006722900963164326,0.021792227637347977,0.0006912884765581452,-3.1038616723937334e-18,0.9851697093749999
1.1600000000000001,0.0007077064678158247,0.0007077064678158245,0.022574938083681783,0.0007281489216891569,3.1038616723937334e-18,0.9850624422400003
1.17,0.0007446584348290637,0.0007446584348290636,0.023381544704426094,0.0007666328872614962,3.1038616723937334e-18,0.9849437466150002
1.18,0.0007831992815975122,0.0007831992815975118,0.02421268322837887,0.0008067970827069582,-3.1038616723937334e-18,0.98481259464
1.19,0.0008233833318397315,0.0008233833318397312,0.02506900960308562,0.0008486996903024373,3.1038616723937334e-18,0.9846679564149999
1.2,0.0008652671468263108,0.0008652671468263105,0.025951191655089256,0.0008924003904537478,3.1038616723937334e-18,0.9845088000000001
1.21,0.0009089082221473933,0.000908908222147393,0.026859915033828938,0.0009379603871946207,6.207723344787467e-18,0.984334091415
1.22,0.0009543658633988566,0.000954365863398856,0.02779588060226206,0.0009854424339008844,1.2415446689574933e-17,0.9841427946400002
1.23,0.001001701075057509,0.0010017010750575086,0.02875980460237622,0.001034910859219825,3.1038616723937334e-18,0.9839338716150001
1.24,0.0010509763981851152,0.001050976398185115,0.02975242249570822,0.0010864315932147305,6.207723344787467e-18,0.9837062822400001
1.25,0.0011022561494091483,0.0011022561494091478,0.0307744853207923,0.001140072193724613,6.207723344787467e-18,0.9834589843749999
1.26,0.001155606452684718,0.0011556064526847174,0.0318267592628423,0.0011959018729391156,9.3115850171812e-18,0.9831909338400001
1.27,0.001211095098433534,0.0012110950984335334,0.032910031595880095,0.001253991524188599,0.0,0.9829010844150002
1.28,0.00126879220514786,0.0012687922051478596,0.034025105924806204,0.0013144137489494098,9.3115850171812e-18,0.98258838784
1.29,0.0013287689997772746,0.0013287689997772735,0.035172802747383755,0.0013772428840643299,3.1038616723937334e-18,0.9822517938149999
1.3,0.0013910997896339173,0.0013910997896339167,0.036353966168658186,0.001442555029178209,9.3115850171812e-18,0.9818902499999999
1.31,0.0014558598712467753,0.0014558598712467751,0.03756945239415926,0.0015104280743887758,0.0,0.9815027020150001
1.32,0.0015231273196910041,0.0015231273196910033,0.03882013972789424,0.0015809417281126327,-9.3115850171812e-18,0.9810880934400001
1.33,0.0015929821521449667,0.001592982152144966,0.04010692673918323,0.0016541775451664308,1.5519308361968666e-17,0.980645365815
1.34,0.0016655066301277705,0.0016655066301277698,0.041430732403731414,0.001730218955063228,9.3115850171812e-18,0.9801734586399999
1.35,0.0017407855660862112,0.0017407855660862104,0.04279248960767169,0.0018091512905240267,0.0,0.9796713093750001
1.36,0.0018189056297472713,0.0018189056297472706,0.04419316300050201,0.0018910618162044919,9.3115850171812e-18,0.9791378534400004
1.37,0.0018999564278945147,0.0018999564278945132,0.04563372461023424,0.0019760397576368553,9.3115850171812e-18,0.9785720242150001
1.3800000000000001,0.001984030335383933,0.001984030335383932,0.04711518014369598,0.002064176330386996,6.207723344787467e-18,0.9779727530399999
1.3900000000000001,0.0020712215403589263,0.002071221540358924,0.04863854577325016,0.002155564769426705,1.5519308361968666e-17,0.9773389692150002
1.4000000000000001,0.0021616279019434992,0.002161627901943497,0.050204864903858684,0.0022503003587211303,9.3115850171812e-18,0.9766696
1.4100000000000001,0.0022553492649545082,0.0022553492649545074,0.05181520130577533,0.002348480461031404,1.5519308361968666e-17,0.9759635706149999
1.42,0.002352489072935789,0.0023524890729357878,0.05347064277699369,0.0024502045479324486,0.0,0.9752198042400002
1.43,0.0024531534475667654,0.002453153447566763,0.055172292578611636,0.002555574230045976,-9.3115850171812e-18,0.9744372220149999
1.44,0.002557451751362396,0.002557451751362394,0.056921289438723856,0.0026646932874886437,9.3115850171812e-18,0.9736147430400003
1.45,0.002665496783439117,0.0026654967834391138,0.058718781104854234,0.0027776677005354167,6.207723344787467e-18,0.9727512843750001
1.46,0.002777404831820836,0.0027774048318208347,0.06056594946977652,0.0028946056804981016,-1.2415446689574933e-17,0.9718457610400001
1.47,0.0028932946142284453,0.002893294614228443,0.062463988357455744,0.003015617700819058,-6.207723344787467e-18,0.9708970860149999
1.48,0.0030132897155256896,0.003013289715525688,0.06441412587438997,0.003140816528380099,1.86231700343624e-17,0.96990417024
1.49,0.0031375170101481794,0.0031375170101481764,0.06641760421083633,0.0032703172550265676,0.0,0.968865922615
1.5,0.0032748181981916923,0.0032748181981916893,0.06850016445299541,0.0034042373293065946,3.72463400687248e-17,0.9646504406249999
1.51,0.0034070316191454225,0.0034070316191454194,0.0706106036526588,0.0035426965884255445,1.2415446689574933e-17,0.9639518083123905
1.52,0.003543640168296479,0.0035436401682964764,0.07277792915000447,0.0036858172904156326,2.4830893379149867e-17,0.9632529599508479
1.53,0.003684760146437716,0.0036847601464377135,0.07500350479427574,0.0038337241465207336,2.4830893379149867e-17,0.9625538986474304
1.54,0.0038305086322175173,0.0038305086322175134,0.07728871511667197,0.003986544353796363,2.4830893379149867e-17,0.961854627499368
1.55,0.003981004944106684,0.00398100494410668,0.07963499184903161,0.004144407627924846,3.72463400687248e-17,0.9611551495940623
1.56,0.004136370594013267,0.0041363705940132625,0.08204377767733047,0.004307446236245666,1.86231700343624e-17,0.9604554680090879
1.57,0.004296730875990086,0.004296730875990082,0.08451656234583517,0.004475795031000992,0.0,0.9597555858121904
1.58,0.004462211881050934,0.00446221188105093,0.08705485989249971,0.004649591482796394,1.2415446689574933e-17,0.959055506061288
1.59,0.004632943636813686,0.004632943636813681,0.08966022483875093,0.004828975714276729,1.86231700343624e-17,0.9583552318044705
