{'aspect_ratio_func': 'dsr_thurai_2007', 'prefactor': 2.2779585408963192, 'elevation': 90.0, 'canting': 10.0, 'frequency': 94.0, 'wl': 3.1892814680851065, 'K2': 0.77013675275255478, 'n': (3.1560980708540423+1.7011673136580374j)}
diameter[mm],radarXSh[mm2],radarXSv[mm2],extxs[mm2],ray[mm2],sKdp[mm2],aspect_ratio
0.01,2.27834675648e-12,2.27834675648e-12,5.04890926923e-07,2.2779585409e-12,0.0,1.0
0.02,1.45888462163e-10,1.45888462163e-10,4.04325987033e-06,1.45789346617e-10,1.54780336057e-22,1.0
0.03,1.66316832667e-09,1.66316832667e-09,1.36695464002e-05,1.66063177631e-09,0.0,1.0
0.04,9.35582964329e-09,9.35582964329e-09,3.24810515759e-05,9.33051818351e-09,1.23824268845e-21,1.0
0.05,3.57438326755e-08,3.57438326755e-08,6.36410276711e-05,3.55931022015e-08,0.0,1.0
0.060000000000000005,1.0692803805e-07,1.0692803805e-07,0.000110403059601,1.06280433684e-07,0.0,1.0
0.06999999999999999,2.7022054527e-07,2.7022054527e-07,0.000176136825942,2.67999544378e-07,0.0,1.0
0.08,6.03612828338e-07,6.03612828338e-07,0.000264355355738,5.97153163745e-07,0.0,1.0
0.09,1.2271653109e-06,1.2271653109e-06,0.000378743854918,1.21060056493e-06,0.0,1.0
0.09999999999999999,2.31642049871e-06,2.31642049871e-06,0.000523190331646,2.2779585409e-06,0.0,1.0
0.11,4.11795385841e-06,4.11795385841e-06,0.00070181799189,4.03554251067e-06,0.0,1.0
0.12,6.96719778354e-06,6.96719778354e-06,0.000919019504239,6.80194775578e-06,0.0,1.0
0.13,1.13086773137e-05,1.13086773137e-05,0.00117949344718,1.09952707868e-05,0.0,1.0
0.14,1.77188410543e-05,1.77188410543e-05,0.00148828324353,1.71519708402e-05,3.96237660306e-20,1.0
0.15000000000000002,2.69316311166e-05,2.69316311166e-05,0.00185081777711,2.59473715049e-05,-3.96237660306e-20,1.0
0.16,3.98670421722e-05,3.98670421722e-05,0.00227295501854,3.82178024797e-05,0.0,1.0
0.17,5.76628028379e-05,5.76628028379e-05,0.00276102814293,5.498438146e-05,0.0,1.0
0.18000000000000002,8.17095035447e-05,8.17095035447e-05,0.00332189424168,7.74784361557e-05,0.0,1.0
0.19,0.000113689317031,0.000113689317031,0.0039629864683,0.000107168566438,0.0,1.0
0.2,0.000155618651205,0.000155618651205,0.00469236838989,0.000145789346617,0.0,1.0
0.21000000000000002,0.000209894834556,0.000209894834556,0.00551879166151,0.000195371667851,3.16990128244e-19,1.0
0.22,0.000279347537824,0.000279347537824,0.00645175740976,0.000258274720683,0.0,1.0
0.23,0.000367294417057,0.000367294417057,0.00750158027143,0.000337219617707,0.0,1.0
0.24000000000000002,0.000477602455391,0.000477602455391,0.00867945703814,0.00043532465637,3.16990128244e-19,1.0
0.25,0.000614753956955,0.000614753956955,0.00999753582319,0.000556142221899,1.58495064122e-19,1.0
0.26,0.000783918362367,0.000783918362366,0.0114689922131,0.000703697330357,-3.16990128244e-19,1.0
0.27,0.000991030351753,0.000991030351753,0.0131081081736,0.000882527811836,0.0,1.0
0.28,0.00124287379684,0.00124287379684,0.0149303496648,0.00109772613377,0.0,1.0
0.29000000000000004,0.00154717172281,0.00154717172281,0.016952453524,0.0013549828644,0.0,1.0
0.3,0.00191268425481,0.00191268425481,0.0191925129633,0.00166063177631,0.0,1.0
0.31,0.00234931151038,0.00234931151038,0.0216700714001,0.00202169659021,0.0,1.0
0.32,0.00286820549087,0.00286820549087,0.0244062059315,0.0024459393587,0.0,1.0
0.33,0.00348188717996,0.00348188717996,0.0274236301898,0.00294191049028,6.33980256489e-19,1.0
0.34,0.00420437341472,0.00420437341472,0.0307467837811,0.00351900041344,0.0,1.0
0.35000000000000003,0.00505130542619,0.00505130542619,0.0344019194566,0.0041874928809,0.0,1.0
0.36000000000000004,0.00604009257895,0.00604009257895,0.0384172171202,0.00495861991396,0.0,1.0
0.37,0.00719005200789,0.00719005200789,0.0428228477005,0.00584461838698,0.0,1.0
0.38,0.00852256475022,0.00852256475022,0.0476510874723,0.00685878825203,0.0,1.0
0.39,0.0100612260457,0.0100612260457,0.0529363833446,0.0080155524036,0.0,1.0
0.4,0.0118320123342,0.0118320123342,0.0587154325553,0.00933051818351,0.0,1.0
0.41000000000000003,0.0138634348692,0.0138634348692,0.0650272547527,0.0108205405259,-1.26796051298e-18,1.0
0.42000000000000004,0.0161867152149,0.0161867152149,0.0719132340765,0.0125037867425,0.0,1.0
0.43,0.0188359380821,0.0188359380821,0.079417185397,0.0143998029476,0.0,1.0
0.44,0.0218482184764,0.0218482184764,0.0875853496235,0.0165295821237,0.0,1.0
0.45,0.0252638528745,0.0252638528745,0.096466407056,0.0189156338271,-1.26796051298e-18,1.0
0.46,0.0291264708159,0.0291264708159,0.106111475512,0.0215820555332,0.0,1.0
0.47000000000000003,0.0334831728609,0.0334831728609,0.116574037313,0.0245546056229,0.0,1.0
0.48000000000000004,0.0383846427159,0.0383846427159,0.127909868856,0.0278607780077,0.0,1.0
0.49,0.0438852541326,0.0438852541326,0.140176930699,0.0315298783965,0.0,1.0
0.5,0.0500431463638,0.0500431463638,0.153435226763,0.0355931022015,0.0,1.0
0.51,0.0569202675384,0.0569202675384,0.167746602011,0.0400836140844,-2.53592102596e-18,1.0
0.52,0.06458241141,0.06458241141,0.183174466589,0.0450366291428,2.53592102596e-18,1.0
0.53,0.0730991420166,0.0730991420166,0.199783576654,0.0504894957373,0.0,1.0
0.54,0.0825438042811,0.0825438042811,0.217639660998,0.0564817799575,0.0,1.0
0.55,0.0929933181621,0.0929933181621,0.236809007888,0.0630553517292,2.53592102596e-18,1.0
0.56,0.104528054249,0.104528054249,0.257358061746,0.0702544725614,0.0,1.0
0.5700000000000001,0.117231595276,0.117231595276,0.279352896829,0.0781258849333,0.0,1.0
0.5800000000000001,0.131190431434,0.131190431434,0.302858701339,0.0867189033214,0.0,1.0
0.59,0.146493609568,0.146493609568,0.327939129608,0.0960855068671,0.0,1.0
0.6,0.163232254311,0.163232254311,0.35465567412,0.106280433684,0.0,1.0
0.61,0.181499115442,0.181499115442,0.383067057974,0.117361276806,0.0,1.0
0.62,0.201387923015,0.201387923015,0.413228396011,0.129388581773,5.07184205191e-18,1.0
0.63,0.222992823194,0.222992823194,0.445190496115,0.142425945864,0.0,1.0
0.64,0.246407589249,0.246407589249,0.478999247817,0.156540118957,7.60776307787e-18,1.0
0.65,0.271724776639,0.271724776639,0.514694524927,0.171801106044,0.0,1.0
0.66,0.299035023238,0.299035023238,0.552309837581,0.188282271378,0.0,1.0
0.67,0.328426005662,0.328426005662,0.591871216727,0.206060444258,0.0,1.0
0.68,0.359981545289,0.359981545289,0.633396738177,0.22521602646,0.0,1.0
0.6900000000000001,0.393780545346,0.393780545346,0.676895743719,0.245833101308,-5.07184205191e-18,1.0
0.7000000000000001,0.431751818597,0.431751818597,0.724200734677,0.267999544378,0.0,0.99443805
0.7100000000000001,0.470655149842,0.470655149842,0.771986882458,0.291807135849,0.0,0.993814308415
0.72,0.512040407874,0.512040407874,0.821740359175,0.317351674494,0.0,0.99322328064
0.73,0.555957726212,0.555957726212,0.873429514364,0.344733093305,-1.01436841038e-17,0.992664030615
0.74,0.602446974836,0.602446974836,0.927011381387,0.374055576767,-1.01436841038e-17,0.99213562024
0.75,0.651536809555,0.651536809555,0.982431314369,0.405427679764,0.0,0.991637109375
0.76,0.703243597941,0.703243597941,1.03962289972,0.43896244813,5.07184205191e-18,0.99116755584
0.77,0.757571054076,0.757571054076,1.0985082279,0.474777540838,0.0,0.990726015415
0.78,0.814509005646,0.814509005645,1.15899768946,0.51299535383,5.07184205191e-18,0.99031154184
0.79,0.874033722183,0.874033722183,1.22099085169,0.553743145489,0.0,0.989923186815
0.8,0.936106793961,0.936106793961,1.28437658209,0.597153163745,0.0,0.98956
0.81,1.00067595811,1.00067595811,1.34903409382,0.643362774828,1.52155261557e-17,0.989221029015
0.8200000000000001,1.06767440198,1.06767440198,1.41483353749,0.69251459366,0.0,0.98890531944
0.8300000000000001,1.13702196665,1.13702196665,1.48163753295,0.74475661588,0.0,0.988611914815
0.8400000000000001,1.20862521014,1.20862521014,1.54930200069,0.80024235152,0.0,0.98833985664
0.85,1.28237871714,1.28237871714,1.61767780215,0.859130960313,1.01436841038e-17,0.988088184375
0.86,1.35816636785,1.35816636785,1.68661218152,0.921587388645,5.07184205191e-18,0.98785593544
0.87,1.43586249178,1.43586249178,1.75595061117,0.987782508145,0.0,0.987642145215
0.88,1.5153335177,1.5153335177,1.82553824149,1.05789325592,0.0,0.98744584704
0.89,1.59644012912,1.59644012912,1.89522174835,1.13210277641,-5.07184205191e-18,0.987266072215
0.9,1.67903878625,1.67903878625,1.96485117093,1.21060056493,-5.07184205191e-18,0.98710185
0.91,1.76298442866,1.76298442866,2.03428170163,1.2935826128,-1.01436841038e-17,0.986952207615
0.92,1.84813188353,1.84813188352,2.10337508071,1.38125155413,0.0,0.98681617024
0.93,1.93433839401,1.93433839401,2.1720011861,1.47381681426,0.0,0.986692761015
0.9400000000000001,2.02146547503,2.02146547503,2.24003941979,1.57149475986,0.0,0.98658100104
0.9500000000000001,2.10938174698,2.10938174698,2.30738019115,1.67450885059,0.0,0.986479909375
0.9600000000000001,2.19796288163,2.19796288163,2.37392490369,1.78308979249,5.07184205191e-18,0.98638850304
0.97,2.2870953758,2.2870953758,2.4395881038,1.89747569296,-5.07184205191e-18,0.986305797015
0.98,2.37667693726,2.37667693726,2.5042968543,2.01791221738,-5.07184205191e-18,0.98623080424
0.99,2.46661765928,2.46661765928,2.56799152415,2.14465274741,0.0,0.986162535615
1.0,2.55684153903,2.55684153903,2.63062583921,2.2779585409,-5.07184205191e-18,0.9861
1.01,2.64728648838,2.64728648838,2.69216655492,2.4180988934,-1.01436841038e-17,0.986042204215
1.02,2.73790578528,2.73790578528,2.75259341813,2.5653513014,-1.01436841038e-17,0.98598815304
1.03,2.82866765118,2.82866765118,2.81189839677,2.72000162716,-5.07184205191e-18,0.985936849215
1.04,2.91955605881,2.91955605881,2.87008542922,2.88234426514,-5.07184205191e-18,0.98588729344
1.05,3.01056986215,3.01056986215,2.927169291,3.05268231018,-5.07184205191e-18,0.985838484375
1.06,3.10172302895,3.10172302895,2.98317496954,3.23132772719,5.07184205191e-18,0.98578941864
1.07,3.19304406507,3.19304406507,3.03813669333,3.41860152258,-1.52155261557e-17,0.985739090815
1.08,3.2845755598,3.2845755598,3.09209716259,3.61483391728,0.0,0.98568649344
1.09,3.37637312221,3.37637312221,3.14510623427,3.82036452143,-5.07184205191e-18,0.985630617015
1.1,3.46850625986,3.46850625986,3.19722080239,4.03554251067,-1.01436841038e-17,0.98557045
1.11,3.56105552396,3.56105552396,3.24850284915,4.26072680411,0.0,0.985504978815
1.12,3.65411307377,3.65411307377,3.29901923689,4.49628624393,-1.01436841038e-17,0.98543318784
1.1300000000000001,3.74778216211,3.74778216211,3.34884091171,4.74259977659,-1.01436841038e-17,0.985354059415
1.1400000000000001,3.84217456966,3.84217456966,3.39804131725,5.00005663573,-1.01436841038e-17,0.98526657384
1.1500000000000001,3.93741294772,3.93741294772,3.44669706262,5.26905652667,-1.01436841038e-17,0.985169709375
1.1600000000000001,4.03362751374,4.03362751374,3.49488618146,5.55000981257,-1.01436841038e-17,0.98506244224
1.17,4.13095624418,4.13095624418,3.54268771283,5.84333770222,-1.01436841038e-17,0.984943746615
1.18,4.22954336704,4.22954336704,3.59018098106,6.14947243949,-5.07184205191e-18,0.98481259464
1.19,4.32954207725,4.32954207725,3.63744650861,6.46885749439,-5.07184205191e-18,0.984667956415
1.2,4.43110943756,4.43110943756,3.68456353292,6.80194775578,-1.01436841038e-17,0.9845088
1.21,4.53440834954,4.53440834954,3.73161082693,7.14920972574,-5.07184205191e-18,0.984334091415
1.22,4.6396079924,4.6396079924,3.77866675895,7.51112171557,-1.01436841038e-17,0.98414279464
1.23,4.74688048276,4.74688048276,3.8258077157,7.88817404341,-1.01436841038e-17,0.983933871615
1.24,4.85640220705,4.85640220705,3.87310870015,8.2808692335,-5.07184205191e-18,0.98370628224
1.25,4.96835432992,4.96835432992,3.92064342341,8.68972221716,-1.52155261557e-17,0.983458984375
1.26,5.08291989951,5.08291989951,3.96848319672,9.11526053528,-1.52155261557e-17,0.98319093384
1.27,5.20028516694,5.20028516694,4.01669742964,9.55802454253,-1.52155261557e-17,0.982901084415
1.28,5.3206390435,5.3206390435,4.06535337223,10.0185676132,-1.01436841038e-17,0.98258838784
1.29,5.44417147479,5.44417147479,4.11451565703,10.4974563488,-5.07184205191e-18,0.982251793815
1.3,5.5710749614,5.5710749614,4.16424680169,10.9952707868,-1.01436841038e-17,0.98189025
1.31,5.70154139805,5.70154139805,4.21460613646,11.512604612,-1.01436841038e-17,0.981502702015
1.32,5.83576358401,5.83576358401,4.26565046256,12.0500653682,-1.01436841038e-17,0.98108809344
1.33,5.973935425,5.973935425,4.31743417286,12.6082746729,-1.01436841038e-17,0.980645365815
1.34,6.11624850824,6.11624850824,4.37000810278,13.1878684325,-1.01436841038e-17,0.98017345864
1.35,6.26289419249,6.26289419249,4.4234203917,13.7894970599,-1.01436841038e-17,0.979671309375
1.36,6.41406189533,6.41406189533,4.47771604619,14.4138256935,-1.52155261557e-17,0.97913785344
1.37,6.56993735805,6.56993735805,4.53293633351,15.0615344173,-1.52155261557e-17,0.978572024215
1.3800000000000001,6.7307054154,6.7307054154,4.58911993518,15.7333184837,-2.02873682076e-17,0.97797275304
1.3900000000000001,6.89654631102,6.89654631102,4.64630185962,16.4298885373,-2.53592102596e-17,0.977338969215
1.4000000000000001,7.06763720166,7.06763720166,4.70451403073,17.1519708402,-1.52155261557e-17,0.9766696
1.4100000000000001,7.24414743726,7.24414743726,4.76378381843,17.9003074991,-1.52155261557e-17,0.975963570615
1.42,7.42624396146,7.42624396146,4.8241360921,18.6756566943,-2.02873682076e-17,0.97521980424
1.43,7.61408810315,7.61408810315,4.88559224749,19.4787929104,-2.02873682076e-17,0.974437222015
1.44,7.80783197973,7.80783197973,4.94816912942,20.3105071676,-2.02873682076e-17,0.97361474304
1.45,8.00762324587,8.00762324587,5.01188093063,21.1716072562,-2.02873682076e-17,0.972751284375
1.46,8.21360349063,8.21360349063,5.07673857558,22.0629179715,-3.04310523115e-17,0.97184576104
1.47,8.42590248307,8.42590248307,5.14274836309,22.9852813511,-2.02873682076e-17,0.970897086015
1.48,8.64464321862,8.64464321862,5.20991337226,23.9395569131,-2.53592102596e-17,0.96990417024
1.49,8.86994187109,8.86994187109,5.27823392206,24.9266218969,-2.53592102596e-17,0.968865922615
1.5,9.12098584707,9.12098584707,5.35382819596,25.9473715049,-3.55028943634e-17,0.964650440625
1.51,9.35735128962,9.35735128962,5.42362276529,27.0027191458,-3.55028943634e-17,0.963951808312
1.52,9.60018074048,9.60018074048,5.49445139543,28.0935966803,-4.05747364153e-17,0.963252959951
1.53,9.84953044051,9.84953044051,5.56629884102,29.2209546675,-3.04310523115e-17,0.962553898647
1.54,10.1054453066,10.1054453066,5.63914680178,30.3857626136,-3.04310523115e-17,0.961854627499
1.55,10.367962213,10.367962213,5.71297484743,31.589009222,-3.55028943634e-17,0.961155149594
1.56,10.6371045324,10.6371045324,5.78775917527,32.8317026451,-4.05747364153e-17,0.960455468009
1.57,10.9128890047,10.9128890047,5.86347459626,34.1148707375,-4.05747364153e-17,0.959755585812
1.58,11.195320351,11.195320351,5.94009312558,35.4395613113,-4.56465784672e-17,0.959055506061
1.59,11.4843945724,11.4843945724,6.01758521433,36.8068423925,-4.05747364153e-17,0.958355231804
1.6,11.7801003541,11.7801003541,6.09591992289,38.2178024797,-4.56465784672e-17,0.95765476608
1.61,12.0824134638,12.0824134638,6.17506381141,39.6735508036,-4.56465784672e-17,0.956954111916
1.62,12.3913046358,12.3913046358,6.25498297423,41.175217589,-4.05747364153e-17,0.956253272332
1.6300000000000001,12.7067370004,12.7067370004,6.33564256559,42.7239543179,-4.56465784672e-17,0.955552250336
1.6400000000000001,13.0286657068,13.0286657068,6.41700659179,44.3209339942,-4.56465784672e-17,0.954851048927
1.6500000000000001,13.3570371936,13.3570371936,6.49903803162,45.9673514106,-5.07184205191e-17,0.954149671094
1.6600000000000001,13.6917962437,13.6917962437,6.5817004753,47.6644234163,-5.07184205191e-17,0.953448119817
1.6700000000000002,14.0328798966,14.0328798966,6.66495668449,49.4133891872,-5.07184205191e-17,0.952746398065
1.68,14.380219842,14.380219842,6.74876937379,51.2155104973,-6.08621046229e-17,0.952044508797
1.69,14.7337454412,14.7337454412,6.83310178152,53.0720719913,-5.5790262571e-17,0.951342454964
1.7,15.0933817588,15.0933817588,6.91791732397,54.98438146,-6.08621046229e-17,0.950640239505
1.71,15.4590515414,15.4590515414,7.00318003678,56.9537701163,-7.10057887268e-17,0.949937865351
1.72,15.8306786253,15.8306786253,7.08885539206,58.9815928733,-5.5790262571e-17,0.949235335422
1.73,16.2081782494,16.2081782494,7.17490803309,61.0692286236,-6.59339466748e-17,0.948532652628
1.74,16.5914761745,16.5914761745,7.26130611185,63.2180805213,-7.10057887268e-17,0.94782981987
1.75,16.9804880527,16.9804880527,7.34801664747,65.4295762641,-6.59339466748e-17,0.947126840039
1.76,17.3751365713,17.3751365713,7.43500932472,67.7051683787,-8.11494728306e-17,0.946423716016
1.77,17.7753439293,17.7753439293,7.52225477534,70.0463345061,-7.60776307787e-17,0.945720450672
1.78,18.1810358288,18.1810358288,7.60972542952,72.4545776903,-7.60776307787e-17,0.945017046869
1.79,18.5921397016,18.5921397016,7.69739498249,74.9314266671,-8.11494728306e-17,0.944313507458
1.8,19.0085856869,19.0085856869,7.78523876855,77.4784361557,-8.62213148825e-17,0.94360983528
1.81,19.4303101611,19.4303101611,7.87323422728,80.0971871512,-8.62213148825e-17,0.942906033168
1.82,19.8572535544,19.8572535544,7.96136050949,82.7892872191,-8.62213148825e-17,0.942202103944
1.83,20.2893590333,20.2893590333,8.0495981166,85.5563707914,-9.12931569344e-17,0.941498050419
1.84,20.7265757,20.7265757,8.13792948881,88.4000994641,-9.12931569344e-17,0.940793875397
1.85,21.1688633389,21.1688633389,8.22633990387,91.3221622966,-8.62213148825e-17,0.940089581669
1.86,21.6161795512,21.6161795512,8.31481475864,94.3242761129,-9.63649989863e-17,0.939385172019
1.87,22.0684969366,22.0684969366,8.4033430493,97.4081858037,-9.12931569344e-17,0.938680649219
1.8800000000000001,22.5257903701,22.5257903701,8.49191463166,100.575664631,-9.12931569344e-17,0.937976016033
1.8900000000000001,22.9880421762,22.9880421762,8.58052130224,103.828514535,-9.63649989863e-17,0.937271275214
1.9000000000000001,23.4552448563,23.4552448563,8.66915709327,107.168566438,-1.01436841038e-16,0.936566429505
1.9100000000000001,23.9273970397,23.9273970397,8.75781763284,110.597680559,-1.01436841038e-16,0.93586148164
1.9200000000000002,24.4045037205,24.4045037205,8.8464998711,114.117746719,-1.01436841038e-16,0.935156434342
1.93,24.8865825668,24.8865825668,8.93520338608,117.730684659,-1.11580525142e-16,0.934451290326
1.94,25.3736552328,25.3736552328,9.02392860031,121.438444349,-1.11580525142e-16,0.933746052295
1.95,25.8657562873,25.8657562873,9.11267835197,125.243006306,-1.16652367194e-16,0.933040722944
1.96,26.3629235173,26.3629235173,9.20145606476,129.146381912,-1.16652367194e-16,0.932335304958
1.97,26.8652091134,26.8652091134,9.29026778347,133.150613732,-1.21724209246e-16,0.93162980101
1.98,27.3726965269,27.3726965269,9.37912510495,137.257775834,-1.21724209246e-16,0.930924213766
1.99,27.8854044592,27.8854044592,9.4680273975,141.469974115,-1.21724209246e-16,0.930218545881
2.0,28.4034344889,28.4034344889,9.55698913933,145.789346617,-1.34403814376e-16,0.9295128
2.01,28.9268690478,28.9268690478,9.64602093437,150.218063864,-1.24260130272e-16,0.928806978758
2.02,29.455803089,29.455803089,9.73513523131,154.758329177,-1.21724209246e-16,0.928101084781
2.03,29.9903410979,29.9903410979,9.82434575321,159.412379013,-1.3186789335e-16,0.927395120684
2.04,30.5305913545,30.5305913545,9.91366648606,164.18248329,-1.39475656428e-16,0.926689089073
2.05,31.0766762634,31.0766762634,10.0031133845,169.070945718,-1.36939735402e-16,0.925982992544
2.0599999999999996,31.6287254735,31.6287254735,10.0927030917,174.080104138,-1.29331972324e-16,0.925276833684
2.07,32.1868731494,32.1868731494,10.1824525077,179.212330854,-1.42011577454e-16,0.924570615068
2.0799999999999996,32.7512622774,32.7512622774,10.2723794907,184.470032969,-1.42011577454e-16,0.923864339263
2.09,33.322047113,33.322047113,10.3625031031,189.855652727,-1.36939735402e-16,0.923158008827
2.0999999999999996,33.8993900572,33.8993900572,10.4528431424,195.371667851,-1.44547498479e-16,0.922451626305
2.11,34.4834548396,34.4834548396,10.5434190238,201.020591886,-1.52155261557e-16,0.921745194235
2.1199999999999997,35.074416309,35.074416309,10.6342512524,206.80497454,-1.52155261557e-16,0.921038715144
2.13,35.6724541701,35.6724541701,10.7253604826,212.727402034,-1.52155261557e-16,0.920332191549
