{'wl': 3.1892814680851065, 'n': (3.4307881253551207+1.9525018267509986j), 'elevation': 90.0, 'aspect_ratio_func': 'dsr_thurai_2007', 'frequency': 94.0, 'K2': 0.817877254303128, 'canting': 10.0, 'prefactor': 2.419168375208361}
diameter[mm],radarXSh[mm2],radarXSv[mm2],extxs[mm2],ray[mm2],sKdp[mm2],aspect_ratio
0.01,2.4196050334424893e-12,2.4196050334423923e-12,4.4655323159891027e-07,2.4191683752083614e-12,0.0,1.0
0.02,1.5493845256540061e-10,1.549384525653944e-10,3.577084340466899e-06,1.5482677601333513e-10,0.0,1.0
0.03,1.7664334133797942e-09,1.7664334133797235e-09,1.209919102839659e-05,1.7635737455268948e-09,0.0,1.0
0.04,9.937456558908868e-09,9.937456558908468e-09,2.876874706627386e-05,9.908913664853448e-09,-1.2382426884549467e-21,1.0
0.05,3.7969507921649694e-08,3.796950792164817e-08,5.641590036443899e-05,3.7799505862630654e-08,2.4764853769098933e-21,1.0
0.060000000000000005,1.1359924018469025e-07,1.1359924018468567e-07,9.79725134790464e-05,1.1286871971372135e-07,0.0,1.0
0.06999999999999999,2.8711850525063125e-07,2.8711850525061976e-07,0.00015650121136383588,2.8461274017488826e-07,4.952970753819787e-21,1.0
0.08,6.414591865428718e-07,6.414591865428459e-07,0.0002352261530939267,6.341704745506207e-07,0.0,1.0
0.09,1.304337588318776e-06,1.3043375883187236e-06,0.00033756568709948973,1.2856452604891061e-06,0.0,1.0
0.09999999999999999,2.462573847753648e-06,2.46257384775355e-06,0.0004671669445850195,2.4191683752083597e-06,0.0,1.0
0.11,4.378714216026655e-06,4.37871421602648e-06,0.000627942724304873,4.285704345952499e-06,0.0,1.0
0.12,7.410109178647148e-06,7.4101091786468524e-06,0.0008241106413521787,7.223598061678161e-06,0.0,1.0
0.13,1.2030604429960191e-05,1.2030604429959712e-05,0.0010602347231643088,1.1676863685971096e-05,0.0,1.0
0.14,1.8855045752658144e-05,1.8855045752657395e-05,0.0013412695050081648,1.821521537119287e-05,-3.9623766030558293e-20,1.0
0.15000000000000002,2.8666773305824028e-05,2.866677330582289e-05,0.0016726074946287603,2.7555839773857762e-05,-3.9623766030558293e-20,1.0
0.16,4.244835723171846e-05,4.244835723171678e-05,0.0020601289382765776,4.0586910371239724e-05,0.0,1.0
0.17,6.141574260000211e-05,6.141574259999969e-05,0.002510254847735124,5.839284357920972e-05,0.0,1.0
0.18000000000000002,8.705619052482607e-05,8.705619052482263e-05,0.003030003459180904,8.228129667130287e-05,-2.3774259618334975e-19,1.0
0.19,0.00012117005820435452,0.00012117005820434975,0.0036270507491034075,0.0001138119074990159,0.0,1.0
0.2,0.00016591693790348627,0.00016591693790347976,0.004309792546335333,0.00015482677601333516,1.5849506412223317e-19,1.0
0.21000000000000002,0.00022386622649247452,0.00022386622649246573,0.005087412125237189,0.0002074826875874938,0.0,1.0
0.22,0.0002980527008496286,0.00029805270084961693,0.005969951027364909,0.00027428507814095994,0.0,1.0
0.23,0.0003920368251260899,0.0003920368251260746,0.006968382886836449,0.0003581237410646553,0.0,1.0
0.24000000000000002,0.0005099710692732544,0.0005099710692732344,0.00809469196852279,0.00046231027594740263,0.0,1.0
0.25,0.0006566712738876382,0.0006566712738876125,0.009361954341260538,0.0005906172791036037,0.0,1.0
0.26,0.0008376943242292044,0.0008376943242291718,0.010784423417930823,0.0007473192759021502,3.1699012824446635e-19,1.0
0.27,0.0010594223178632968,0.0010594223178632556,0.012377617974115154,0.0009372353948965589,9.50970384733399e-19,1.0
0.28,0.0013291524698826407,0.0013291524698825893,0.014158414603193583,0.0011657737837563436,0.0,1.0
0.29000000000000004,0.0016551946381746301,0.0016551946381745662,0.0161451387288335,0.0014389777669996122,0.0,1.0
0.3,0.0020469741420295388,0.00204697414202946,0.018357666300376788,0.0017635737455268946,0.0,1.0
0.31,0.0025151430301572956,0.002515143030157199,0.02081751384387714,0.002147020837956209,3.1699012824446635e-19,1.0
0.32,0.003071696776827266,0.003071696776827148,0.023547941862041264,0.0025975622637593424,0.0,1.0
0.33,0.003730098042705959,0.0037300980427058157,0.026574045220181183,0.003124278468199373,0.0,1.0
0.34,0.004505407876857862,0.004505407876857688,0.02992285872729464,0.003737141989069422,-6.339802564889327e-19,1.0
0.35000000000000003,0.005414418970952519,0.005414418970952313,0.03362343626856032,0.004447074065232635,0.0,1.0
0.36000000000000004,0.006475800010815765,0.006475800010815521,0.03770694495318173,0.005266002986963384,6.339802564889327e-19,1.0
0.37,0.00771023843647123,0.007710238436470939,0.04220673891770025,0.006206924188089711,1.2679605129778654e-18,1.0
0.38,0.009140589228527111,0.009140589228526766,0.04715843696813331,0.007283962079937018,0.0,1.0
0.39,0.010792029606302727,0.010792029606302319,0.05259996975956919,0.008512433627072928,0.0,1.0
0.4,0.012692207674291776,0.012692207674291295,0.05857163286659053,0.00990891366485345,1.2679605129778654e-18,1.0
0.41000000000000003,0.014871385609848143,0.014871385609847586,0.0651161011354067,0.011491301958770319,0.0,1.0
0.42000000000000004,0.017362600686364436,0.017362600686363788,0.07227844784837552,0.013278892005599603,0.0,1.0
0.43,0.020201793933897393,0.020201793933896633,0.0801061085633568,0.015292441576351498,0.0,1.0
0.44,0.023427939814782202,0.02342793981478133,0.08864884776840325,0.017554245001021436,0.0,1.0
0.45,0.027083174976818208,0.027083174976817195,0.09795867108650688,0.02008820719514229,2.5359210259557308e-18,1.0
0.46,0.03121290267927309,0.031212902679271935,0.1080897349092963,0.02291991942813794,-1.2679605129778654e-18,1.0
0.47000000000000003,0.03586586022847009,0.03586586022846876,0.11909817104245435,0.026076736833477998,0.0,1.0
0.48000000000000004,0.04109421698537797,0.04109421698537645,0.13104193213037132,0.02958785766063377,-3.803881538933596e-18,1.0
0.49,0.04695356620737463,0.04695356620737289,0.14398053559162952,0.03348440426883545,1.2679605129778654e-18,1.0
0.5,0.0535029902897266,0.05350299028972461,0.1579748441931234,0.03779950586263064,0.0,1.0
0.51,0.060804975136287256,0.06080497513628501,0.17308671053314173,0.042568382969243874,0.0,1.0
0.52,0.06892541016096776,0.06892541016096523,0.18937866596084005,0.04782843365773761,2.5359210259557308e-18,1.0
0.53,0.07793343882089586,0.07793343882089299,0.20691351971086713,0.053619321499974296,-5.0718420519114616e-18,1.0
0.54,0.0879013571808833,0.08790135718088007,0.2257539559870742,0.05998306527337977,0.0,1.0
0.55,0.09890440770840066,0.09890440770839704,0.24596209263419788,0.06696413040550783,2.5359210259557308e-18,1.0
0.56,0.1110205323877106,0.11102053238770655,0.26759893364348664,0.07460952216040599,-2.5359210259557308e-18,1.0
0.5700000000000001,0.12433015294504261,0.12433015294503809,0.2907240099225791,0.08296888056678264,5.0718420519114616e-18,1.0
0.5800000000000001,0.13891578814209798,0.13891578814209288,0.3153947140643707,0.09209457708797518,-2.5359210259557308e-18,1.0
0.59,0.15486169613056225,0.1548616961305566,0.34166590933147895,0.10204181303371955,-2.5359210259557308e-18,1.0
0.6,0.17225345103492717,0.1722534510349209,0.3695892425613568,0.11286871971372126,0.0,1.0
0.61,0.1911774282384382,0.19117742823843123,0.3992127530198271,0.12463646033302685,0.0,1.0
0.62,0.21172035311352894,0.2117203531135212,0.4305802658270774,0.13740933362919738,0.0,1.0
0.63,0.23396863005067858,0.23396863005067006,0.4637308281744225,0.1512548792512829,0.0,1.0
0.64,0.25800763759127615,0.2580076375912667,0.49869821299621214,0.1662439848805979,0.0,1.0
0.65,0.2839212099113945,0.28392120991138414,0.535510279818956,0.18245099509329835,-2.5359210259557308e-18,1.0
0.66,0.3117905888819005,0.3117905888818891,0.5741884969357814,0.19995382196475986,0.0,1.0
0.67,0.3416938905773658,0.3416938905773533,0.6147474741988849,0.21883405741575676,5.0718420519114616e-18,1.0
0.68,0.3737049049103844,0.37370490491037067,0.6571941008416894,0.23917708730044301,0.0,1.0
0.6900000000000001,0.4078923707493297,0.4078923707493149,0.7015272789928702,0.2610722072361338,0.0,1.0
0.7000000000000001,0.4464697925974927,0.4464697925974763,0.7497066605081052,0.28461274017488863,0.0,0.9944380500000001
0.7100000000000001,0.48565961358950477,0.485659613589487,0.7981622565070134,0.3098961557168955,5.0718420519114616e-18,0.9938143084150001
0.72,0.527237885476858,0.5272378854768388,0.8484755968919662,0.33702419116565624,-1.0143684103822923e-17,0.9932232806400001
0.73,0.5712431973081697,0.571243197308149,0.9006069778101458,0.36610297432497446,-1.5215526155734384e-17,0.9926640306150001
0.74,0.617703535267007,0.6177035352669845,0.954505667628978,0.3972431480377415,1.0143684103822923e-17,0.9921356202399999
0.75,0.6666349489604483,0.666634948960424,1.0101096548778667,0.4305599964665271,0.0,0.991637109375
0.76,0.7180408805119709,0.7180408805119447,1.0673451503748637,0.46617357311596913,2.0287368207645846e-17,0.99116755584
0.77,0.7719113318162418,0.771911331816214,1.1261268790649186,0.5042088305969656,5.0718420519114616e-18,0.990726015415
0.78,0.8282222151219971,0.8282222151219671,1.186358031714977,0.5447957521326674,5.0718420519114616e-18,0.9903115418399999
0.79,0.8869352203538883,0.8869352203538562,1.2479310054023345,0.5880694848062724,-1.5215526155734384e-17,0.989923186815
0.8,0.9479975864409962,0.9479975864409617,1.310727490752187,0.6341704745506208,0.0,0.9895600000000001
0.81,1.011342218963774,1.011342218963737,1.3746197649188445,0.6832446028795915,0.0,0.9892210290150001
0.8200000000000001,1.0768885065292222,1.076888506529183,1.4394716805094545,0.7354433253613004,5.0718420519114616e-18,0.9889053194399999
0.8300000000000001,1.1445430312322944,1.144543031232253,1.5051402195156924,0.790923811833099,1.0143684103822923e-17,0.9886119148149999
0.8400000000000001,1.2142005798874351,1.2142005798873912,1.5714766712255026,0.8498490883583746,-1.0143684103822923e-17,0.9883398566399999
0.85,1.285745783912405,1.2857457839123585,1.6383288343263886,0.9123881809251514,-1.5215526155734384e-17,0.988088184375
0.86,1.3590547502249557,1.3590547502249073,1.705542795557296,0.9787162608864959,-1.0143684103822923e-17,0.98785593544
0.87,1.43399678476135,1.4339967847612987,1.7729644861760834,1.0490147921427166,1.0143684103822923e-17,0.987642145215
0.88,1.5104370990545768,1.5104370990545226,1.8404426470162112,1.123471680065372,0.0,0.98744584704
0.89,1.588238317089095,1.5882383170890386,1.907829810887534,1.202281422163076,-1.5215526155734384e-17,0.9872660722150002
0.9,1.6672632543847472,1.6672632543846886,1.9749848475125795,1.2856452604891067,-5.0718420519114616e-18,0.9871018500000002
0.91,1.7473767231566038,1.7473767231565431,2.041774334980685,1.3737713357908135,-5.0718420519114616e-18,0.986952207615
0.92,1.8284482309924608,1.8284482309923966,2.108074743678987,1.466874843400828,-1.5215526155734384e-17,0.9868161702400001
0.93,1.9103536413052746,1.9103536413052082,2.1737729950798377,1.565178190870077,-1.5215526155734384e-17,0.9866927610150001
0.9400000000000001,1.9929768729529347,1.992976872952865,2.2387679587415525,1.6689111573425919,0.0,0.9865810010400001
0.9500000000000001,2.0762121923151455,2.0762121923150736,2.3029714889987902,1.7783110546721241,-2.0287368207645846e-17,0.9864799093750001
0.9600000000000001,2.159964880865834,2.1599648808657603,2.3663085139881708,1.8936228902805612,5.0718420519114616e-18,0.9863885030400001
0.97,2.2441527123204974,2.244152712320421,2.428717670240972,2.015099531758139,5.0718420519114616e-18,0.9863057970150001
0.98,2.3287065202116954,2.3287065202116155,2.490151048015858,2.1430018732054688,0.0,0.98623080424
0.99,2.4135719270076406,2.413571927007559,2.550574419493978,2.277599003317342,1.0143684103822923e-17,0.986162535615
1.0,2.498707730846697,2.4987077308466126,2.609966172470369,2.419168375208361,0.0,0.9861000000000001
1.01,2.584087434546931,2.5840874345468445,2.6683172607632164,2.567995977980356,0.0,0.986042204215
1.02,2.6696986284181374,2.669698628418048,2.7256301178016393,2.724376510031608,-2.0287368207645846e-17,0.98598815304
1.03,2.7555431592624218,2.7555431592623307,2.781918027423181,2.8886135541078732,0.0,0.9859368492149999
1.04,2.8416358058257924,2.8416358058256983,2.837203901385858,3.061019754095207,-2.535921025955731e-17,0.98588729344
1.05,2.928004968465891,2.9280049684657947,2.8915199280143704,3.2419169935545895,-5.0718420519114616e-18,0.9858384843750001
1.06,3.0146901148781144,3.014690114878016,2.9449053717784004,3.431636575998355,-2.0287368207645846e-17,0.9857894186399999
1.07,3.101743780092588,3.101743780092488,2.9974071153743242,3.630519406908418,-1.0143684103822923e-17,0.985739090815
1.08,3.1892281700377088,3.1892281700376057,3.049077401748722,3.8389161774963054,0.0,0.98568649344
1.09,3.2772156170173905,3.2772156170172857,3.0999733999443935,4.0571875502049854,0.0,0.985630617015
1.1,3.36578845810822,3.3657884581081126,3.150156726198405,4.285704345952501,-1.0143684103822923e-17,0.98557045
1.11,3.4550368933710516,3.455036893370941,3.199691763410776,4.524847733117403,-1.0143684103822923e-17,0.985504978815
1.12,3.545059459858348,3.545059459858236,3.2486458189547784,4.7750094182659835,-1.5215526155734384e-17,0.9854331878400002
1.1300000000000001,3.635961535536955,3.63596153553684,3.297087705107511,5.036591838621317,-2.0287368207645846e-17,0.9853540594150003
1.1400000000000001,3.7278554573599667,3.7278554573598495,3.345087707865753,5.310008356274089,-1.0143684103822923e-17,0.9852665738400002
1.1500000000000001,3.820859151113456,3.8208591511133365,3.3927165800957324,5.5956834541352425,-1.5215526155734384e-17,0.9851697093749999
1.1600000000000001,3.9150966156581455,3.9150966156580234,3.4400455759124746,5.8940529336304115,-1.0143684103822923e-17,0.9850624422400003
1.17,4.0106968707311,4.010696870730974,3.4871457876471084,6.205564114136162,-5.0718420519114616e-18,0.9849437466150002
1.18,4.107792560522657,4.107792560522529,3.534087300139334,6.530676034158051,-1.0143684103822923e-17,0.98481259464
1.19,4.206522148824774,4.206522148824644,3.580940141959313,6.86985965425044,-1.5215526155734384e-17,0.9846679564149999
1.2,4.307027487353062,4.30702748735293,3.627773004028968,7.22359806167816,0.0,0.9845088000000001
1.21,4.409452977996484,4.409452977996347,3.6746529593683213,7.592386676819953,-1.0143684103822923e-17,0.984334091415
1.22,4.51394804263169,4.513948042631551,3.721646343219404,7.976733461313718,-1.0143684103822923e-17,0.9841427946400002
1.23,4.620662970877997,4.620662970877854,3.768816977117184,8.377159127943559,-5.0718420519114616e-18,0.9839338716150001
1.24,4.729754314353733,4.7297543143535865,3.8162284624502787,8.794197352268633,-1.0143684103822923e-17,0.9837062822400001
1.25,4.841377195556457,4.841377195556308,3.8639410295409236,9.228394985993807,-1.5215526155734384e-17,0.9834589843749999
1.26,4.955691452729954,4.9556914527298,3.9120140174117704,9.680312272082105,-1.0143684103822923e-17,0.9831909338400001
1.27,5.072858282075824,5.072858282075668,3.9605044754315717,10.15052306160896,-1.5215526155734384e-17,0.9829010844150002
1.28,5.19304136174658,5.19304136174642,4.009467788969435,10.639615032358266,-1.5215526155734384e-17,0.98258838784
1.29,5.316405266934971,5.316405266934806,4.058957038476891,11.148189909160244,-1.5215526155734384e-17,0.9822517938149999
1.3,5.443115294760394,5.443115294760223,4.109022913624101,11.676863685971094,-3.043105231146877e-17,0.9818902499999999
1.31,5.573339641248666,5.5733396412484915,4.1597147915736095,12.226266849694447,-1.0143684103822923e-17,0.9815027020150001
1.32,5.707246049410394,5.707246049410217,4.211079308088241,12.797044605744631,0.0,0.9810880934400001
1.33,5.84500227543512,5.845002275434939,4.263160744654088,13.389857105351725,-2.0287368207645846e-17,0.980645365815
1.34,5.986776560622043,5.986776560621855,4.316001319077012,14.005379674608433,-2.0287368207645846e-17,0.9801734586399999
1.35,6.132738490764229,6.1327384907640345,4.369641444725907,14.644303045258734,-3.5502894363380233e-17,0.9796713093750001
1.36,6.283054839720172,6.28305483971997,4.424118391048229,15.307333587228353,-1.5215526155734384e-17,0.9791378534400004
1.37,6.4378932521811825,6.437893252180979,4.479467722027678,15.995193542897027,-2.535921025955731e-17,0.9785720242150001
1.3800000000000001,6.5974184121203425,6.59741841212013,4.535721939891614,16.708621263112562,-2.0287368207645846e-17,0.9779727530399999
1.3900000000000001,6.761795841680714,6.761795841680496,4.592912069325513,17.448371444946723,-3.5502894363380233e-17,0.9773389692150002
1.4000000000000001,6.9311858919813965,6.93118589198117,4.6510653981571295,18.215215371192873,-4.057473641529169e-17,0.9766696
1.4100000000000001,7.105749906195335,7.105749906195101,4.710208130792153,19.009941151605464,-1.5215526155734384e-17,0.9759635706149999
1.42,7.285643823597196,7.285643823596955,4.770362872129217,19.83335396588129,-2.0287368207645846e-17,0.9752198042400002
1.43,7.47102214678667,7.471022146786422,4.831550317461577,20.686276308382627,-2.0287368207645846e-17,0.9744372220149999
1.44,7.662035544079151,7.662035544078894,4.893788573805141,21.569548234602,-4.057473641529169e-17,0.9736147430400003
1.45,7.8588296814576175,7.858829681457352,4.957092777061149,22.48402760936892,-3.043105231146877e-17,0.9727512843750001
1.46,8.061548136953366,8.061548136953093,5.021476219348242,23.430590356798366,-3.043105231146877e-17,0.9718457610400001
1.47,8.27032692210417,8.27032692210389,5.086948747532092,24.41013071198104,-2.535921025955731e-17,0.9708970860149999
1.48,8.485298527791961,8.485298527791672,5.153518073516666,25.423561474415457,-3.043105231146877e-17,0.96990417024
1.49,8.706591018923467,8.706591018923161,5.221189749789737,26.47181426318183,-3.5502894363380233e-17,0.968865922615
1.5,8.954446279495324,8.954446279495013,5.296575131512351,27.555839773857734,-5.071842051911462e-17,0.9646504406249999
1.51,9.186232849430182,9.186232849429862,5.365561971271183,28.67660803717561,-3.043105231146877e-17,0.9639518083123905
1.52,9.424285046109642,9.424285046109308,5.435543582150659,29.835108679422024,-4.564657846720315e-17,0.9632529599508479
1.53,9.668680322715838,9.668680322715494,5.506512159418404,31.032351184578786,-3.043105231146877e-17,0.9625538986474304
1.54,9.919489646413691,9.919489646413338,5.57845777781426,32.2693651582058,-4.057473641529169e-17,0.961854627499368
1.55,10.176774778907893,10.176774778907529,5.651368101743516,33.547200593065774,-4.564657846720315e-17,0.9611551495940623
1.56,10.440588497193408,10.44058849719303,5.725228188686993,34.86692813649071,-4.057473641529169e-17,0.9604554680090879
1.57,10.710978977129182,10.710978977128793,5.800022106935556,36.229639359490186,-3.5502894363380233e-17,0.9597555858121904
1.58,10.987979252995352,10.98797925299495,5.875729992525179,37.636447027601434,-5.579026257102608e-17,0.959055506061288
1.59,11.271618814583029,11.271618814582617,5.952331397789401,39.08848537348126,-5.579026257102608e-17,0.9583552318044705
1.6,11.56191476716925,11.56191476716883,6.029803066111661,40.58691037123973,-5.071842051911462e-17,0.95765476608
1.61,11.858877208302776,11.858877208302333,6.108120372289366,42.13290001251564,-5.071842051911462e-17,0.9569541119163105
1.62,12.162508210422056,12.162508210421603,6.187257172145149,43.72765458429386,-4.564657846720315e-17,0.9562532723320079
1.6300000000000001,12.472798191184458,12.47279819118399,6.267185037478645,45.37239694846438,-7.100578872676047e-17,0.9555522503358704
1.6400000000000001,12.789732098104034,12.789732098103547,6.34787484384427,47.06837282312323,-4.564657846720315e-17,0.9548510489268479
1.6500000000000001,13.113284987884532,13.113284987884036,6.429295799198881,48.81685106561521,-5.071842051911462e-17,0.9541496710940625
1.6600000000000001,13.443423513285133,13.443423513284626,6.511415894659621,50.61912395731834,-8.114947283058338e-17,0.953448119816808
1.6700000000000002,13.780107649396625,13.780107649396093,6.594202331177503,52.476507490170185,-5.071842051911462e-17,0.9527463980645504
1.68,14.123290824630855,14.123290824630308,6.677621731904422,54.39034165493593,-5.071842051911462e-17,0.952044508796928
1.69,14.472917894394843,14.47291789439429,6.7616396668550385,56.361990731218434,-6.5933946674849e-17,0.9513424549637505
1.7,14.828928593237535,14.82892859323696,6.846221379400774,58.39284357920969,-5.579026257102608e-17,0.950640239505
