{'frequency': 35.6, 'K2': 0.9076711324657145, 'n': (5.198742318859741+2.776527278824784j), 'aspect_ratio_func': 'dsr_thurai_2007', 'wl': 8.421136460674157, 'canting': 10.0, 'elevation': 90.0, 'prefactor': 0.055232546521968295}
diameter[mm],radarXSh[mm2],radarXSv[mm2],extxs[mm2],ray[mm2],sKdp[mm2],aspect_ratio
0.01,5.523463109617624e-14,5.5234631096174016e-14,7.883263468658206e-08,5.5232546521968307e-14,6.3857758029080155e-24,1.0
0.02,3.5354163442016923e-12,3.53541634420155e-12,6.310765453043565e-07,3.5348829774059716e-12,5.1086206423264124e-23,1.0
0.03,4.027818641803311e-11,4.027818641803148e-11,2.132228470971666e-06,4.026452641451488e-11,0.0,1.0
0.04,2.2636896620401694e-10,2.2636896620400784e-10,5.0619822798643274e-06,2.2623251055398218e-10,0.0,1.0
0.05,8.638217067283332e-10,8.638217067282984e-10,9.906374252508588e-06,8.630085394057549e-10,8.17379302772226e-22,1.0
0.060000000000000005,2.580426135381361e-09,2.5804261353812577e-09,1.715996926400664e-05,2.576929690528954e-09,1.634758605544452e-21,1.0
0.06999999999999999,6.510052463335509e-09,6.5100524633352486e-09,2.7328087404164903e-05,6.498053865763044e-09,1.634758605544452e-21,1.0
0.08,1.4513797741544372e-08,1.451379774154379e-08,4.092907440262011e-05,1.447888067545486e-08,0.0,1.0
0.09,2.9442420590034364e-08,2.944242059003318e-08,5.8496635322948456e-05,2.9352839756181345e-08,3.269517211088904e-21,1.0
0.09999999999999999,5.544063317728196e-08,5.544063317727974e-08,8.05822081814431e-05,5.523254652196827e-08,0.0,1.0
0.11,9.829384488526974e-08,9.829384488526579e-08,0.00010775741037542944,9.784782534900468e-08,0.0,1.0
0.12,1.6581811372970056e-07,1.6581811372969392e-07,0.0001406165487190837,1.6492350019385295e-07,0.0,1.0
0.13,2.6829400512285636e-07,2.682940051228456e-07,0.0001797791553088456,2.665969526451553e-07,0.0,1.0
0.14,4.1894552908941334e-07,4.189455290893965e-07,0.00022589271574934006,4.158754474088353e-07,0.0,1.0
0.15000000000000002,6.344644388638143e-07,6.344644388637889e-07,0.0002796353166657755,6.291332252267957e-07,0.0,1.0
0.16,9.355820802127205e-07,9.355820802126832e-07,0.00034171843372751606,9.26648363229111e-07,0.0,1.0
0.17,1.3476882817600117e-06,1.3476882817599577e-06,0.00041288998605302325,1.3331794027197203e-06,0.0,1.0
0.18000000000000002,1.9015008798736927e-06,1.901500879873617e-06,0.0004939370953174051,1.878581744395608e-06,-2.615613768871123e-20,1.0
0.19,2.6337837637861827e-06,2.633783763786077e-06,0.0005856893562739908,2.5984638109994845e-06,0.0,1.0
0.2,3.5881186192069724e-06,3.588118619206829e-06,0.0006890218513326569,3.534882977405972e-06,0.0,1.0
0.21000000000000002,4.815729503973958e-06,4.815729503973766e-06,0.0008048586647423088,4.737081268141265e-06,0.0,1.0
0.22,6.376361792555095e-06,6.3763617925548396e-06,0.0009341760204139773,6.2622608223363e-06,0.0,1.0
0.23,8.339216052866011e-06,8.33921605286568e-06,0.0010780059852435314,8.176399126113437e-06,5.231227537742246e-20,1.0
0.24000000000000002,1.0783946024212992e-05,1.0783946024212563e-05,0.0012374400558200153,1.0555104012406596e-05,0.0,1.0
0.25,1.3801708116300594e-05,1.3801708116300045e-05,0.001413632870128473,1.3484508428214916e-05,1.0462455075484493e-19,1.0
0.26,1.7496277268928577e-05,1.749627726892788e-05,0.0016078061435443086,1.706220496928994e-05,1.0462455075484493e-19,1.0
0.27,2.1985231006614686e-05,2.1985231006613812e-05,0.0018212526065984177,2.1398220182256214e-05,1.0462455075484493e-19,1.0
0.28,2.7401190201816276e-05,2.7401190201815192e-05,0.002055340351876615,2.661602863416546e-05,0.0,1.0
0.29000000000000004,3.3893123458361036e-05,3.3893123458359694e-05,0.0023115167753281793,3.2853606749484205e-05,-2.0924910150968985e-19,1.0
0.3,4.162775396102078e-05,4.162775396101914e-05,0.002591313780906928,4.0264526414514877e-05,0.0,1.0
0.31,5.0790978416554e-05,5.0790978416552e-05,0.0028963511557647766,4.901908834925061e-05,0.0,1.0
0.32,6.158941383091487e-05,6.158941383091245e-05,0.0032283428103358045,5.9305495246663106e-05,0.0,1.0
0.33,7.425201296202323e-05,7.425201296202031e-05,0.003589100080059638,7.133106467942443e-05,0.0,1.0
0.34,8.903174253347444e-05,8.903174253347096e-05,0.003980538539810192,8.53234817740621e-05,-2.0924910150968985e-19,1.0
0.35000000000000003,0.00010620730185738335,0.00010620730185737917,0.004404681864405947,0.00010153209165254768,0.0,1.0
0.36000000000000004,0.0001260850390084667,0.00012608503900846175,0.0048636674455108725,0.00012022923164131891,-4.184982030193797e-19,1.0
0.37,0.00014900083457865357,0.00014900083457864774,0.005359753152008312,0.00014171160324773514,0.0,1.0
0.38,0.00017532212831454868,0.00017532212831454183,0.0058953212586584335,0.000166301683903967,-4.184982030193797e-19,1.0
0.39,0.00020545004385119086,0.00020545004385118286,0.006472885456602137,0.00019434917847831824,0.0,1.0
0.4,0.0002398215119810279,0.00023982151198101854,0.007095097930979324,0.00022623251055398221,0.0,1.0
0.41000000000000003,0.00027891180454262644,0.00027891180454261554,0.00776475298775728,0.0002623603534752315,0.0,1.0
0.42000000000000004,0.0003232364848511462,0.00032323648485113355,0.008484796351901318,0.00030317320116104096,-4.184982030193797e-19,1.0
0.43,0.000373354417418851,0.0003733544174188364,0.009258328804667553,0.0003491449786861438,4.184982030193797e-19,1.0
0.44,0.00042986990549678567,0.0004298699054967688,0.010088616226917693,0.0004007846926295232,4.184982030193797e-19,1.0
0.45,0.0004934355850388419,0.0004934355850388226,0.010979094224910647,0.0004586381211903337,0.0,1.0
0.46,0.0005647553717571852,0.0005647553717571633,0.011933375841855819,0.00052328954407126,4.184982030193797e-19,1.0
0.47000000000000003,0.000644586909084337,0.0006445869090843122,0.012955259025333355,0.0005953635121293065,-8.369964060387594e-19,1.0
0.48000000000000004,0.0007337449864091078,0.0007337449864090796,0.014048733850186462,0.0006755266567940221,8.369964060387594e-19,1.0
0.49,0.0008331045049929614,0.0008331045049929291,0.01521798999442926,0.0007644895392531568,0.0,1.0
0.5,0.0009436034678128615,0.0009436034678128249,0.016467423976827784,0.0008630085394057546,-8.369964060387594e-19,1.0
0.51,0.0010662467683102423,0.0010662467683102016,0.01780164958681255,0.0009718877845826758,8.369964060387594e-19,1.0
0.52,0.0012021089701621211,0.0012021089701620747,0.019225498234834614,0.0010919811180345562,0.0,1.0
0.53,0.00135233858665904,0.0013523385866589881,0.020744036792837067,0.0012241941071871986,0.0,1.0
0.54,0.0015181604995323584,0.0015181604995323005,0.02236256966120167,0.0013694860916643977,0.0,1.0
0.55,0.0017008816133740068,0.0017008816133739413,0.02408664430968301,0.0015288722710781989,0.0,1.0
0.56,0.0019018924333055066,0.0019018924333054344,0.025922067159122795,0.0017034258325865895,-8.369964060387594e-19,1.0
0.5700000000000001,0.0021226724126031495,0.0021226724126030684,0.027874903200976277,0.0018942801182186253,-8.369964060387594e-19,1.0
0.5800000000000001,0.002364793437457248,0.002364793437457158,0.029951487960588507,0.002102630831966989,0.0,1.0
0.59,0.0026299242000790255,0.0026299242000789253,0.03215843647939091,0.0023297382866479806,0.0,1.0
0.6,0.00291983432353604,0.00291983432353593,0.03450264347775597,0.002576929690528952,0.0,1.0
0.61,0.003236397556228449,0.0032363975562283262,0.03699130121436065,0.0028456014737231546,1.6739928120775188e-18,1.0
0.62,0.0035815977096743676,0.003581597709674231,0.03963189570416829,0.003137221654352039,1.6739928120775188e-18,1.0
0.63,0.003957531568128294,0.003957531568128144,0.042432220663384694,0.0034533322444749806,0.0,1.0
0.64,0.004366413522913494,0.004366413522913331,0.04540038160956925,0.0037955516957864388,0.0,1.0
0.65,0.004810581232018805,0.004810581232018624,0.0485447999874897,0.004165577385080552,-1.6739928120775188e-18,1.0
0.66,0.005292497343220314,0.005292497343220116,0.05187421629042474,0.004565188139483163,-1.6739928120775188e-18,1.0
0.67,0.005814757603846208,0.00581475760384599,0.055397705992197954,0.004996246801451281,-1.6739928120775188e-18,1.0
0.68,0.006380091447807908,0.006380091447807671,0.05912466400943507,0.0054607028335399745,0.0,1.0
0.6900000000000001,0.006991368040175651,0.0069913680401753895,0.06306482453691618,0.005960594962936697,0.0,1.0
0.7000000000000001,0.007681284938906709,0.007681284938906423,0.06730931625206449,0.006498053865763052,0.0,0.9944380500000001
0.7100000000000001,0.008400093580353568,0.008400093580353258,0.0717186952370628,0.007075304891143985,0.0,0.9938143084150001
0.72,0.009175032848643794,0.009175032848643455,0.07637266373920508,0.007694670825044402,5.021978436232556e-18,0.9932232806400001
0.73,0.010009615266427766,0.010009615266427399,0.08128227949761715,0.008358574693873268,-5.021978436232556e-18,0.9926640306150001
0.74,0.01090751604244394,0.010907516042443537,0.08645892851751714,0.00906954260785505,0.0,0.9921356202399999
0.75,0.011872577289554069,0.01187257728955363,0.09191431372891108,0.009830206644168674,0.0,0.991637109375
0.76,0.01290880626224982,0.012908806262249339,0.09766048928980246,0.010643307769853888,3.3479856241550376e-18,0.99116755584
0.77,0.014020381921634252,0.01402038192163374,0.10370979568253567,0.011511698804485052,3.3479856241550376e-18,0.990726015415
0.78,0.01521166174437877,0.015211661744378213,0.11007491687112064,0.012438347422612368,3.3479856241550376e-18,0.9903115418399999
0.79,0.01648717649850987,0.016487176498509264,0.11676880379752433,0.013426339195970534,-3.3479856241550376e-18,0.989923186815
0.8,0.017851632478349765,0.017851632478349113,0.12380471664169869,0.014478880675454862,-6.695971248310075e-18,0.9895600000000001
0.81,0.019309928150471757,0.019309928150471053,0.13119617022484886,0.01559930251286478,-6.695971248310075e-18,0.9892210290150001
0.8200000000000001,0.02086713645579426,0.0208671364557935,0.13895695806805877,0.016791062622414817,6.695971248310075e-18,0.9889053194399999
0.8300000000000001,0.022528519265825955,0.02252851926582514,0.14710107431621586,0.018057749382012985,0.0,0.9886119148149999
0.8400000000000001,0.024299526015984056,0.024299526015983175,0.15564276350319942,0.01940308487430662,1.0043956872465113e-17,0.9883398566399999
0.85,0.02618578561508655,0.0261857856150856,0.16459644796727385,0.020830928167495617,0.0,0.988088184375
0.86,0.02819311878338168,0.028193118783380655,0.17397670355464318,0.022345278635913204,6.695971248310075e-18,0.98785593544
0.87,0.03032753008219277,0.030327530082191665,0.18379827097673826,0.02395027932037397,-6.695971248310075e-18,0.987642145215
0.88,0.032595215585312594,0.032595215585311414,0.19407597875026783,0.025650220328289484,3.3479856241550376e-18,0.98744584704
0.89,0.03500254963909804,0.03500254963909677,0.20482473478394755,0.027449542273551297,3.3479856241550376e-18,0.9872660722150002
0.9,0.0375560861908486,0.03755608619084724,0.21605948760070728,0.029352839756181356,1.0043956872465113e-17,0.9871018500000002
0.91,0.04026257804253542,0.04026257804253396,0.22779520149057578,0.03136486488174988,6.695971248310075e-18,0.986952207615
0.92,0.043128929743092285,0.04312892974309073,0.2400467804730792,0.03349053082056064,-3.3479856241550376e-18,0.9868161702400001
0.93,0.046162250537201986,0.04616225053720032,0.252829082338649,0.0357349154066037,6.695971248310075e-18,0.9866927610150001
0.9400000000000001,0.04936980711393971,0.049369807113937916,0.26615684095676384,0.03810326477627562,-6.695971248310075e-18,0.9865810010400001
0.9500000000000001,0.052759039042880713,0.05275903904287882,0.2800446029480169,0.04060099704686696,6.695971248310075e-18,0.9864799093750001
0.9600000000000001,0.056337552476057345,0.05633755247605532,0.2945067368638986,0.043233706034817417,2.0087913744930225e-17,0.9863885030400001
0.97,0.06011312353639863,0.06011312353639647,0.3095573918299543,0.04600716501373819,2.0087913744930225e-17,0.9863057970150001
0.98,0.06409368249544635,0.06409368249544403,0.3252103819548694,0.048927330512202036,-1.339194249662015e-17,0.98623080424
0.99,0.06828732906361482,0.06828732906361237,0.34147919345955036,0.05200034615130039,6.695971248310075e-18,0.986162535615
1.0,0.07270230727190412,0.0727023072719015,0.35837696851310635,0.055232546521968295,2.0087913744930225e-17,0.9861000000000001
1.01,0.07734701530331772,0.07734701530331493,0.3759164178745523,0.05863046110207653,4.017582748986045e-17,0.986042204215
1.02,0.08223000267465835,0.0822300026746554,0.39410977778273315,0.06220081821329125,6.695971248310075e-18,0.98598815304
1.03,0.08735997040127606,0.0873599704012729,0.41296882003599206,0.06595054901770109,1.339194249662015e-17,0.9859368492149999
1.04,0.09274575996449559,0.09274575996449223,0.432504793051556,0.0698867915542116,-6.695971248310075e-18,0.98588729344
1.05,0.0983963806768573,0.09839638067685377,0.45272841971977396,0.07401689481470725,2.0087913744930225e-17,0.9858384843750001
1.06,0.10432098216860465,0.1043209821686009,0.4736497893461003,0.07834842285998071,-6.695971248310075e-18,0.9857894186399999
1.07,0.110528862410812,0.11052886241080799,0.49527846453009555,0.08288915897542977,6.695971248310075e-18,0.985739090815
1.08,0.11702946634250114,0.1170294663424969,0.5176233588137257,0.08764710986652145,6.695971248310075e-18,0.98568649344
1.09,0.12383243292755473,0.12383243292755024,0.540692856453744,0.09263050989402376,1.339194249662015e-17,0.985630617015
1.1,0.13094754860408428,0.13094754860407953,0.5644946621590085,0.09784782534900473,-1.339194249662015e-17,0.98557045
1.11,0.13838479366014725,0.13838479366014222,0.5890359057535519,0.10330775876759898,2.67838849932403e-17,0.985504978815
1.12,0.14615434247201176,0.14615434247200643,0.6143231442634053,0.10901925328554173,4.6871798738170526e-17,0.9854331878400002
1.1300000000000001,0.1542665382992209,0.15426653829921527,0.6403624347326993,0.1149914970324701,6.695971248310075e-18,0.9853540594150003
1.1400000000000001,0.1627320000373018,0.16273200003729582,0.6671592187158879,0.12123392756599202,6.695971248310075e-18,0.9852665738400002
1.1500000000000001,0.17156153587909165,0.17156153587908543,0.6947184994314117,0.12775623634552252,1.339194249662015e-17,0.9851697093749999
1.1600000000000001,0.18076622307236842,0.18076622307236184,0.7230449087059682,0.1345683732458873,6.695971248310075e-18,0.9850624422400003
1.17,0.19035746431680994,0.19035746431680295,0.752142614923477,0.14168055111069391,2.0087913744930225e-17,0.9849437466150002
1.18,0.2003469295122031,0.20034692951219568,0.7820155665710707,0.14910325034547076,2.0087913744930225e-17,0.98481259464
1.19,0.21074658926628215,0.21074658926627435,0.8126674346304475,0.1568472235505723,2.67838849932403e-17,0.9846679564149999
1.2,0.22156882060984662,0.22156882060983843,0.8441017668162293,0.16492350019385293,6.695971248310075e-18,0.9845088000000001
1.21,0.23282641671687168,0.23282641671686305,0.8763219576201839,0.17334339132310805,1.339194249662015e-17,0.984334091415
1.22,0.24453252023801858,0.24453252023800942,0.9093316172282914,0.1821184943182819,0.0,0.9841427946400002
1.23,0.2567007819110252,0.25670078191101553,0.9431342999407355,0.19126069768344367,0.0,0.9839338716150001
1.24,0.26934535748888305,0.26934535748887295,0.9777337443779859,0.2007821858785305,1.339194249662015e-17,0.9837062822400001
1.25,0.28248088803616855,0.2824808880361579,1.0131342797278933,0.21069544419085806,1.339194249662015e-17,0.9834589843749999
1.26,0.2961226379745062,0.29612263797449506,1.0493404319113477,0.22101326364639876,5.35677699864806e-17,0.9831909338400001
1.27,0.31028640513352007,0.3102864051335083,1.0863572524011174,0.23174874596082692,4.017582748986045e-17,0.9829010844150002
1.28,0.32498875786616205,0.32498875786614967,1.124190570079579,0.24291530853033208,0.0,0.98258838784
1.29,0.34024680801086965,0.3402468080108565,1.1628467514560359,0.25452668946219886,-1.339194249662015e-17,0.9822517938149999
1.3,0.35607859614889353,0.3560785961488799,1.2023333109416576,0.2665969526451553,1.339194249662015e-17,0.9818902499999999
1.31,0.3725026808923181,0.3725026808923037,1.2426583318686275,0.27914049285948744,1.339194249662015e-17,0.9815027020150001
1.32,0.3895386247168671,0.389538624716852,1.283831138284199,0.29217204092692245,-1.339194249662015e-17,0.9810880934400001
1.33,0.40720681467356856,0.40720681467355285,1.3258621514822337,0.3057066689002784,4.017582748986045e-17,0.980645365815
1.34,0.42552840142218407,0.42552840142216736,1.3687627636571713,0.319759795292882,4.017582748986045e-17,0.9801734586399999
1.35,0.44452558720066204,0.44452558720064456,1.4125459185550973,0.33434719034775334,-1.339194249662015e-17,0.9796713093750001
1.36,0.4642215370726728,0.4642215370726546,1.4572256307770073,0.34948498134655837,1.339194249662015e-17,0.9791378534400004
1.37,0.48464032279163266,0.48464032279161356,1.5028174720962497,0.36518965795832864,5.35677699864806e-17,0.9785720242150001
1.3800000000000001,0.5058071163774728,0.5058071163774527,1.5493382082630422,0.3814780776279486,1.339194249662015e-17,0.9779727530399999
1.3900000000000001,0.5277481266115436,0.5277481266115225,1.5968062847528537,0.3983674710044103,1.339194249662015e-17,0.9773389692150002
1.4000000000000001,0.550490707226808,0.5504907072267861,1.6452414095444703,0.4158754474088353,2.67838849932403e-17,0.9766696
1.4100000000000001,0.5740631535056628,0.5740631535056399,1.6946649185277822,0.4340200003422645,0.0,0.9759635706149999
1.42,0.5984951407140272,0.5984951407140032,1.7450996521576183,0.45281951303321455,2.67838849932403e-17,0.9752198042400002
1.43,0.623817387592551,0.6238173875925261,1.7965697770728786,0.47229276402500375,4.017582748986045e-17,0.9744372220149999
1.44,0.6500618334757216,0.6500618334756955,1.8491012752956264,0.49245893280284175,6.695971248310075e-17,0.9736147430400003
1.45,0.6772615483432184,0.6772615483431909,1.9027211615045372,0.5133376054606902,4.017582748986045e-17,0.9727512843750001
1.46,0.7054511180283818,0.7054511180283531,1.9574584547981282,0.5349487804078892,8.03516549797209e-17,0.9718457610400001
1.47,0.734666072170371,0.7346660721703411,2.013343024782958,0.5573128741155512,4.017582748986045e-17,0.9708970860149999
1.48,0.7649434090135709,0.7649434090135396,2.070406700144696,0.5804507269027231,2.67838849932403e-17,0.96990417024
1.49,0.7963212524337723,0.7963212524337394,2.1286821639184463,0.6043836087623147,0.0,0.968865922615
1.5,0.8317351116491518,0.8317351116491177,2.190593370242751,0.6291332252267952,6.695971248310075e-17,0.9646504406249999
1.51,0.8651552262591801,0.8651552262591443,2.2511751040445596,0.6547217232736574,8.03516549797209e-17,0.9639518083123905
1.52,0.899714676806269,0.8997146768062317,2.3130024687632416,0.6811716972706489,5.35677699864806e-17,0.9632529599508479
1.53,0.9354462733278565,0.9354462733278177,2.3761040030180873,0.7085061949607707,6.695971248310075e-17,0.9625538986474304
1.54,0.9723833112293052,0.9723833112292644,2.440508070820231,0.7367487234870433,1.071355399729612e-16,0.961854627499368
1.55,1.0105595934968328,1.0105595934967906,2.5062434899326904,0.7659232554570409,9.374359747634105e-17,0.9611551495940623
1.56,1.050009257708633,1.050009257708589,2.5733392632594136,0.7960542350471915,4.017582748986045e-17,0.9604554680090879
1.57,1.0907663177180518,1.0907663177180056,2.641823736172405,0.827166584146846,2.67838849932403e-17,0.9597555858121904
1.58,1.1328656448417955,1.132865644841748,2.711725707331557,0.8592857085421142,-2.67838849932403e-17,0.959055506061288
1.59,1.176341796165291,1.1763417961652416,2.7830736655285495,0.8924375041394679,1.339194249662015e-16,0.9583552318044705
1.6,1.2212296211805864,1.2212296211805347,2.855895191873237,0.9266483632291111,5.35677699864806e-17,0.95765476608
1.61,1.2675641604651224,1.2675641604650687,2.930217934903888,0.9619451807881199,5.35677699864806e-17,0.9569541119163105
1.62,1.315380135468772,1.3153801354687158,3.006068502215358,0.998355360823346,-2.67838849932403e-17,0.9562532723320079
1.6300000000000001,1.3647124273778048,1.3647124273777471,3.0834729641946375,1.0359068227540915,2.67838849932403e-17,0.9555522503358704
1.6400000000000001,1.4155956862239174,1.415595686223857,3.1624568234351034,1.0746280078345483,2.67838849932403e-17,0.9548510489268479
1.6500000000000001,1.4680644851148528,1.4680644851147904,3.243044066673051,1.114547885616007,2.67838849932403e-17,0.9541496710940625
