{'K2': 0.847893210129674, 'canting': 10.0, 'frequency': 94.0, 'prefactor': 2.507951442233622, 'n': (3.699704408735369+2.155748075879551j), 'wl': 3.1892814680851065, 'aspect_ratio_func': 'dsr_thurai_2007', 'elevation': 90.0}
diameter[mm],radarXSh[mm2],radarXSv[mm2],extxs[mm2],ray[mm2],sKdp[mm2],aspect_ratio
0.01,2.508429143103196e-12,2.508429143103095e-12,3.93713740256291e-07,2.5079514422336223e-12,0.0,1.0
0.02,1.6063106177970704e-10,1.606310617797006e-10,3.154854705297207e-06,1.6050889230295183e-10,0.0,1.0
0.03,1.8314257755004958e-09,1.8314257755004224e-09,1.067692393163173e-05,1.82829660138831e-09,0.0,1.0
0.04,1.030380266419488e-08,1.0303802664194467e-08,2.540668903092494e-05,1.0272569107388917e-08,-1.2382426884549467e-21,1.0
0.05,3.9372790812151525e-08,3.9372790812149944e-08,4.987284134704793e-05,3.918674128490036e-08,-1.2382426884549467e-21,1.0
0.060000000000000005,1.1781051918959106e-07,1.1781051918958633e-07,8.671626348951311e-05,1.1701098248885193e-07,0.0,1.0
0.06999999999999999,2.9780071092955144e-07,2.978007109295396e-07,0.00013872209308442952,2.9505797922734324e-07,0.0,1.0
0.08,6.654227448189661e-07,6.654227448189396e-07,0.00020885372437334866,6.574444228728907e-07,9.905941507639573e-21,1.0
0.09,1.3532899232094704e-06,1.3532899232094162e-06,0.0003002890393899865,1.332828222412078e-06,1.9811883015279147e-20,1.0
0.09999999999999999,2.55546610102681e-06,2.5554661010267083e-06,0.00041645872950646633,2.507951442233621e-06,0.0,1.0
0.11,4.544803457803043e-06,4.544803457802861e-06,0.0005610874812410119,4.442988964954838e-06,0.0,1.0
0.12,7.69286250640362e-06,7.692862506403315e-06,0.0007382374804255683,7.488702879286518e-06,0.0,1.0
0.13,1.2492598013528916e-05,1.2492598013528421e-05,0.0009523550686453377,1.2105402592936231e-05,0.0,1.0
0.14,1.9584001446090336e-05,1.9584001446089556e-05,0.0012083203554100262,1.8883710670549988e-05,0.0,1.0
0.15000000000000002,2.9782927517343865e-05,2.9782927517342682e-05,0.0015115001212772608,2.856713439669238e-05,0.0,1.0
0.16,4.4113330309807436e-05,4.4113330309805694e-05,0.001867804229176868,4.2076443063865004e-05,0.0,1.0
0.17,6.384314241935797e-05,6.384314241935545e-05,0.0022837450781883996,6.053585098556359e-05,-1.5849506412223317e-19,1.0
0.18000000000000002,9.052412163621314e-05,9.052412163620956e-05,0.0027665020717241987,8.530100623437307e-05,-7.924753206111659e-20,1.0
0.19,0.0001260358117968063,0.0001260358117968013,0.003323988603377148,0.00011798878510510137,0.0,1.0
0.2,0.00017263411369483918,0.0001726341136948324,0.003964923085219865,0.00016050889230295187,1.5849506412223317e-19,1.0
0.21000000000000002,0.00023300445970374638,0.00023300445970373727,0.004698905737337417,0.00021509726685673347,1.5849506412223317e-19,1.0
0.22,0.0003103201133470029,0.0003103201133469908,0.005536496126918191,0.00028435129375710964,0.0,1.0
0.23,0.000408305792222093,0.00040830579222207703,0.006489298682533175,0.00037126682131988643,0.0,1.0
0.24000000000000002,0.0005313070000431477,0.0005313070000431269,0.0075700463653573065,0.0004792769842743375,3.1699012824446635e-19,1.0
0.25,0.0006843650831722091,0.0006843650831721823,0.008792695532606518,0.0006122928325765679,0.0,1.0
0.26,0.0008732978887111543,0.0008732978887111202,0.010172514678127615,0.0007747457659479188,3.1699012824446635e-19,1.0
0.27,0.0011047875981572326,0.0011047875981571897,0.01172618368341534,0.0009716317741384054,0.0,1.0
0.28,0.0013864741894056437,0.0013864741894055901,0.013471889860915447,0.0012085574829151992,-3.1699012824446635e-19,1.0
0.29000000000000004,0.001727055262743875,0.0017270552627438082,0.015429427843896918,0.0014917880057761436,0.0,1.0
0.3,0.0021363922404886906,0.0021363922404886086,0.017620294480185816,0.00182829660138831,6.339802564889327e-19,1.0
0.31,0.002625621568259614,0.002625621568259513,0.020067793054231252,0.002225816136751598,0.0,1.0
0.32,0.00320727537064074,0.0032072753706406175,0.022797117305830093,0.0026928923560873602,0.0,1.0
0.33,0.0038954019077272676,0.0038954019077271193,0.025835448759021783,0.0032389389554520775,0.0,1.0
0.34,0.0047056927499798396,0.004705692749979661,0.02921203095239401,0.0038742944630760696,0.0,1.0
0.35000000000000003,0.005655618859279051,0.005655618859278836,0.03295825131291347,0.004610280925427243,6.339802564889327e-19,1.0
0.36000000000000004,0.00676455756545036,0.006764557565450104,0.03710769103327021,0.005459264398999877,0.0,1.0
0.37,0.008053934978252122,0.008053934978251817,0.04169617169772964,0.006434717247828441,0.0,1.0
0.38,0.009547357182509337,0.009547357182508978,0.04676179157545636,0.007551282246726488,0.0,1.0
0.39,0.011270739860105372,0.011270739860104947,0.05234491898944075,0.008824838490250512,0.0,1.0
0.4,0.01325244348034798,0.013252443480347483,0.058488178814404095,0.01027256910738892,0.0,1.0
0.41000000000000003,0.01552339618477249,0.015523396184771908,0.06523641635035976,0.011913030781976,0.0,1.0
0.42000000000000004,0.018117197850603096,0.01811719785060242,0.07263659845581853,0.013766225078830942,0.0,1.0
0.43,0.021070235714254096,0.021070235714253312,0.08073771462633882,0.015853671575621873,0.0,1.0
0.44,0.024421759116182426,0.024421759116181517,0.08959065602018002,0.018198482800455017,0.0,1.0
0.45,0.028213969894495393,0.028213969894494345,0.09924799947408641,0.020825440975188726,-2.5359210259557308e-18,1.0
0.46,0.032492060348262373,0.032492060348261166,0.10976381903923037,0.02376107656447273,-2.5359210259557308e-18,1.0
0.47000000000000003,0.0373042515515125,0.03730425155151112,0.12119343671798342,0.027033748630512326,0.0,1.0
0.48000000000000004,0.042701823262612626,0.04270182326261105,0.1335931487371289,0.0306737269935576,2.5359210259557308e-18,1.0
0.49,0.04873906536860004,0.04873906536859823,0.14701990388597339,0.03471327619811772,-2.5359210259557308e-18,1.0
0.5,0.055473293630081966,0.05547329363007992,0.16153100974504642,0.039186741284900344,0.0,1.0
0.51,0.06296474805348556,0.06296474805348323,0.1771837690039526,0.04413063536847584,-5.0718420519114616e-18,1.0
0.52,0.07127652877880741,0.07127652877880478,0.19403514721772647,0.0495837290206668,-2.5359210259557308e-18,1.0
0.53,0.08047449147737666,0.08047449147737368,0.21214142689628332,0.05558714145966239,-5.0718420519114616e-18,1.0
0.54,0.09062710234947458,0.09062710234947122,0.2315578487848635,0.06218443354485795,2.5359210259557308e-18,1.0
0.55,0.10180529583830081,0.10180529583829706,0.25233830196926393,0.06942170257741936,-2.5359210259557308e-18,1.0
0.56,0.11408229091654547,0.11408229091654123,0.2745350102550681,0.07734767890657275,0.0,1.0
0.5700000000000001,0.12753338377097426,0.12753338377096948,0.2981982487422113,0.08601382434161894,2.5359210259557308e-18,1.0
0.5800000000000001,0.14223569497182584,0.14223569497182056,0.323376016626329,0.09547443236967319,2.5359210259557308e-18,1.0
0.59,0.15826790969788096,0.15826790969787508,0.3501138343589721,0.10578673017912973,7.607763077867192e-18,1.0
0.6,0.17570994808666954,0.175709948086663,0.37845438893741223,0.11701098248885183,0.0,1.0
0.61,0.1946425924356565,0.1946425924356492,0.4084373478097551,0.12921059718308606,2.5359210259557308e-18,1.0
0.62,0.21514706953780954,0.2151470695378015,0.44009896661838815,0.14245223275210228,0.0,1.0
0.63,0.23730444756489028,0.2373044475648814,0.47347182125954823,0.1568059075385586,0.0,1.0
0.64,0.2611952497306421,0.26119524973063235,0.5085843039771673,0.17234511078959106,2.5359210259557308e-18,1.0
0.65,0.2868985003227012,0.2868985003226904,0.5454602382323527,0.18914691551462856,5.0718420519114616e-18,1.0
0.66,0.3144911826986518,0.31449118269863985,0.5841182077810055,0.20729209314893296,0.0,1.0
0.67,0.3440471791022226,0.3440471791022096,0.6245710718708295,0.22686523002286377,0.0,1.0
0.68,0.375636372278238,0.3756363722782238,0.6668250937035939,0.24795484563686845,0.0,1.0
0.6900000000000001,0.40932357032878797,0.4093235703287725,0.7108792487134694,0.2706535127421973,0.0,1.0
0.7000000000000001,0.44751671150308897,0.44751671150307204,0.7587771664635248,0.29505797922734356,0.0,0.9944380500000001
0.7100000000000001,0.48607898688770024,0.4860789868876819,0.8068081254024947,0.32126929181020863,-5.0718420519114616e-18,0.9938143084150001
0.72,0.5269418568689241,0.5269418568689042,0.8566160241629026,0.3493929215359918,0.0,0.9932232806400001
0.73,0.5701387207967996,0.5701387207967781,0.9081614940340577,0.3795388910808068,0.0,0.9926640306150001
0.74,0.6156915989783663,0.6156915989783431,0.9613937286467675,0.41182190386102024,0.0,0.9921356202399999
0.75,0.6636099142359296,0.6636099142359043,1.0162494657152028,0.44636147494831796,5.0718420519114616e-18,0.991637109375
0.76,0.7138898446937236,0.7138898446936964,1.0726533057716694,0.4832820637904952,-5.0718420519114616e-18,0.99116755584
0.77,0.7665137264078814,0.7665137264078522,1.1305175168002846,0.5227132087379718,-1.0143684103822923e-17,0.990726015415
0.78,0.8214494923710924,0.8214494923710614,1.1897420128464693,0.5647896633760328,0.0,0.9903115418399999
0.79,0.8786505554859477,0.8786505554859145,1.2502155143556752,0.6096515346627935,5.0718420519114616e-18,0.989923186815
0.8,0.9380565609696343,0.9380565609695991,1.311816029826819,0.6574444228728908,0.0,0.9895600000000001
0.81,0.999593558958497,0.9995935589584592,1.3744124644372409,0.7083195633468976,1.0143684103822923e-17,0.9892210290150001
0.8200000000000001,1.0631752616267578,1.0631752616267176,1.437865901168939,0.762433970046464,1.0143684103822923e-17,0.9889053194399999
0.8300000000000001,1.128704059247707,1.1287040592476647,1.5020314347008852,0.8199505809151828,0.0,0.9886119148149999
0.8400000000000001,1.1960730750011572,1.1960730750011126,1.5667602746309441,0.8810384050451803,-5.0718420519114616e-18,0.9883398566399999
0.85,1.2651676035182249,1.2651676035181778,1.6319019129809327,0.9458726716494306,1.0143684103822923e-17,0.988088184375
0.86,1.335867182944812,1.3358671829447624,1.697305862942293,1.0146349808397999,0.0,0.98785593544
0.87,1.408047966138686,1.4080479661386331,1.7628244032908873,1.087513456210808,-1.0143684103822923e-17,0.987642145215
0.88,1.4815852028560323,1.4815852028559777,1.828314579388419,1.164702899229121,0.0,0.98744584704
0.89,1.556354715686565,1.5563547156865072,1.893639762359927,1.2464049454287673,0.0,0.9872660722150002
0.9,1.6322352769162745,1.6322352769162143,1.9586716142871838,1.3328282224120784,-5.0718420519114616e-18,0.9871018500000002
0.91,1.709111310026268,1.7091113100262052,2.023292027001011,1.4241885096563545,-2.0287368207645846e-17,0.986952207615
0.92,1.7868736510239784,1.7868736510239136,2.087393551076814,1.5207089001262548,1.0143684103822923e-17,0.9868161702400001
0.93,1.8654221460141103,1.8654221460140428,2.150881375927866,1.6226199636919156,5.0718420519114616e-18,0.9866927610150001
0.9400000000000001,1.9446655787004432,1.9446655787003726,2.213672757952082,1.7301599123527889,0.0,0.9865810010400001
0.9500000000000001,2.024524659441762,2.0245246594416897,2.2756985497340207,1.8435747672672096,-2.535921025955731e-17,0.9864799093750001
0.9600000000000001,2.104930726571666,2.104930726571591,2.3369022548597242,1.9631185275876863,-1.0143684103822923e-17,0.9863885030400001
0.97,2.185828247719044,2.185828247718966,2.397240899061613,2.0890533411019168,-1.5215526155734384e-17,0.9863057970150001
0.98,2.2671733022036524,2.267173302203572,2.456683493647125,2.221649676679534,-5.0718420519114616e-18,0.98623080424
0.99,2.3489350769549753,2.3489350769548927,2.515211481531067,2.361186498524564,-1.5215526155734384e-17,0.986162535615
1.0,2.431095055944922,2.4310950559448377,2.5728174175015983,2.507951442233622,5.0718420519114616e-18,0.9861000000000001
1.01,2.5136460976707324,2.5136460976706454,2.629504053613215,2.66224099265983,0.0,0.986042204215
1.02,2.5965937247323447,2.5965937247322546,2.685283972890602,2.824360663582454,-1.0143684103822923e-17,0.98598815304
1.03,2.6799536052618853,2.6799536052617934,2.7401780127759845,2.9946251791822744,-1.0143684103822923e-17,0.9859368492149999
1.04,2.76375257532581,2.763752575325715,2.794214760623197,3.1733586573226753,-1.5215526155734384e-17,0.98588729344
1.05,2.848026942504444,2.848026942504348,2.8474293500857053,3.3608947946364593,-1.5215526155734384e-17,0.9858384843750001
1.06,2.932822008050527,2.9328220080504286,2.899862402129306,3.557577053418393,-1.5215526155734384e-17,0.9857894186399999
1.07,3.0181920668782736,3.018192066878172,2.9515597650862313,3.763758850323472,-3.043105231146877e-17,0.985739090815
1.08,3.1041988898953643,3.10419888989526,3.002570842770412,3.9798037468709087,-5.0718420519114616e-18,0.98568649344
1.09,3.190911587023899,3.190911587023793,3.0529485263621026,4.206085641753855,0.0,0.985630617015
1.1,3.278405552900268,3.2784055529001592,3.102747945475676,4.442988964954839,-1.5215526155734384e-17,0.98557045
1.11,3.366762649612549,3.366762649612436,3.152026313441428,4.690908873666936,-1.0143684103822923e-17,0.985504978815
1.12,3.4560698984519806,3.4560698984518674,3.2008421165354686,4.950251450020656,-2.0287368207645846e-17,0.9854331878400002
1.1300000000000001,3.5464201678369274,3.5464201678368115,3.2492549477410337,5.221433900616562,-2.0287368207645846e-17,0.9853540594150003
1.1400000000000001,3.637910628889625,3.6379106288895064,3.297324722105351,5.504884757863612,1.0143684103822923e-17,0.9852665738400002
1.1500000000000001,3.730643031978238,3.7306430319781168,3.3451114768187846,5.801044083123229,1.5215526155734384e-17,0.9851697093749999
1.1600000000000001,3.824722540754616,3.824722540754492,3.3926748337147306,6.110363671659084,-1.5215526155734384e-17,0.9850624422400003
1.17,3.9202601906113093,3.920260190611181,3.44007479629184,6.433307259392619,0.0,0.9849437466150002
1.18,4.017368597124665,4.017368597124537,3.4873698992646878,6.770350731464303,-1.0143684103822923e-17,0.98481259464
1.19,4.11616428448854,4.1161642844884065,3.5346180041845003,7.121982332600567,-5.0718420519114616e-18,0.9846679564149999
1.2,4.216768332461271,4.216768332461137,3.581876656505673,7.488702879286517,-1.0143684103822923e-17,0.9845088000000001
1.21,4.319305013036015,4.319305013035876,3.6292023310607893,7.871025973744356,-2.0287368207645846e-17,0.984334091415
1.22,4.423900042297197,4.4239000422970545,3.6766496356993192,8.269478219717508,-1.0143684103822923e-17,0.9841427946400002
1.23,4.530683138699426,4.530683138699281,3.7242725705282007,8.684599440060499,1.0143684103822923e-17,0.9839338716150001
1.24,4.639788122616416,4.639788122616267,3.772124275775917,9.116942896134546,-1.0143684103822923e-17,0.9837062822400001
1.25,4.751350184583546,4.751350184583393,3.820256130053088,9.567075509008873,-1.5215526155734384e-17,0.9834589843749999
1.26,4.865508162632122,4.865508162631963,3.8687185028256987,10.035578082467751,-5.0718420519114616e-18,0.9831909338400001
1.27,4.9824030141691615,4.9824030141690026,3.917560307683511,10.52304552782327,-2.0287368207645846e-17,0.9829010844150002
1.28,5.10217917583507,5.102179175834907,3.9668294906255346,11.030087090533828,-1.5215526155734384e-17,0.98258838784
1.29,5.224983132860285,5.224983132860117,4.016572526526755,11.557326578628349,0.0,0.9822517938149999
1.3,5.350962957116851,5.3509629571166775,4.066834118797591,12.105402592936228,-1.0143684103822923e-17,0.9818902499999999
1.31,5.480271345528702,5.480271345528525,4.117658592621781,12.674968759122995,-2.0287368207645846e-17,0.9815027020150001
1.32,5.61305979053008,5.6130597905298965,4.169087677599036,13.26669396153171,-3.043105231146877e-17,0.9810880934400001
1.33,5.749485022484163,5.749485022483977,4.22116281871558,13.881262578830073,-2.0287368207645846e-17,0.980645365815
1.34,5.889703746649727,5.889703746649533,4.273923509076156,14.519374721463281,-1.0143684103822923e-17,0.9801734586399999
1.35,6.033874965364429,6.033874965364231,4.327407914974791,15.181746470912586,-2.0287368207645846e-17,0.9796713093750001
1.36,6.182157333631321,6.182157333631114,4.38165212946655,15.869110120759581,-1.5215526155734384e-17,0.9791378534400004
1.37,6.3347133871586445,6.334713387158432,4.436691793008179,16.582214419556237,-3.043105231146877e-17,0.9785720242150001
1.3800000000000001,6.491703399189622,6.491703399189407,4.492559757758162,17.321824815500626,-2.0287368207645846e-17,0.9779727530399999
1.3900000000000001,6.653290458818835,6.653290458818612,4.549288221051013,18.088723702918404,-2.0287368207645846e-17,0.9773389692150002
1.4000000000000001,6.8196362841810085,6.819636284180779,4.606906967419035,18.883710670549988,-1.0143684103822923e-17,0.9766696
1.4100000000000001,6.990903570214067,6.99090357021383,4.665444705108732,19.70760275164349,-2.0287368207645846e-17,0.9759635706149999
1.42,7.167252196252975,7.167252196252733,4.724927314234184,20.56123467585333,-2.0287368207645846e-17,0.9752198042400002
1.43,7.348843679677553,7.348843679677302,4.785379870133299,21.445459122944687,-2.535921025955731e-17,0.9744372220149999
1.44,7.5358361705737975,7.535836170573541,4.846824845060719,22.361146978303474,-3.5502894363380233e-17,0.9736147430400003
1.45,7.728386713518521,7.728386713518253,4.909282990400155,23.309187590252225,-3.043105231146877e-17,0.9727512843750001
1.46,7.926652426190074,7.926652426189801,4.972773595284803,24.290489029171635,-3.043105231146877e-17,0.9718457610400001
1.47,8.13078049847337,8.130780498473086,5.037311772454387,25.305978348427814,-4.057473641529169e-17,0.9708970860149999
1.48,8.340922040278766,8.340922040278473,5.102912688756626,26.356601847105296,-2.0287368207645846e-17,0.96990417024
1.49,8.55722202585586,8.557222025855559,5.169588448863377,27.44332533454573,-2.535921025955731e-17,0.968865922615
1.5,8.80092307540931,8.800923075408997,5.244376953831774,28.56713439669235,-4.564657846720315e-17,0.9646504406249999
1.51,9.027330061767252,9.027330061766927,5.312278711683231,29.729034664240135,-1.5215526155734384e-17,0.9639518083123905
1.52,9.259878752125047,9.259878752124715,5.381161626654346,30.930052082591693,-2.0287368207645846e-17,0.9632529599508479
1.53,9.498668445233859,9.49866844523351,5.451025209995631,32.17123318361889,-5.071842051911462e-17,0.9625538986474304
1.54,9.74379063506034,9.743790635059982,5.521866348159215,33.453645359230194,-3.5502894363380233e-17,0.961854627499368
1.55,9.99533020123752,9.995330201237154,5.593679859545465,34.77837713674373,-5.071842051911462e-17,0.9611551495940623
1.56,10.253360871291488,10.253360871291108,5.666457242554377,36.1465384560661,-5.071842051911462e-17,0.9604554680090879
1.57,10.517951724985886,10.517951724985492,5.74018863692478,37.55926094867685,-3.5502894363380233e-17,0.9597555858121904
1.58,10.789157775778676,10.789157775778271,5.81486042135296,39.017698218418786,-3.043105231146877e-17,0.959055506061288
1.59,11.067029772006574,11.067029772006157,5.890458020399239,40.52302612409389,-5.071842051911462e-17,0.9583552318044705
1.6,11.35160598509236,11.35160598509193,5.966963577462831,42.076443063865014,-5.071842051911462e-17,0.95765476608
1.61,11.642915363462729,11.642915363462286,6.044357188772344,43.679170261463334,-5.071842051911462e-17,0.9569541119163105
1.62,11.940975234601277,11.940975234600822,6.122616426519096,45.33245205420145,-4.564657846720315e-17,0.9562532723320079
1.6300000000000001,12.245797254673514,12.245797254673041,6.201717618988357,47.037556182792294,-4.564657846720315e-17,0.9555522503358704
1.6400000000000001,12.557378730879654,12.557378730879162,6.28163429482145,48.79577408297369,-6.086210462293754e-17,0.9548510489268479
1.6500000000000001,12.875709844833036,12.875709844832537,6.362338642406938,50.60842117893873,-5.071842051911462e-17,0.9541496710940625
1.6600000000000001,13.20077004301876,13.200770043018247,6.443800892611223,52.4768371785717,-5.579026257102608e-17,0.953448119816808
1.6700000000000002,13.53252901537175,13.53252901537122,6.525989764367334,54.40238637049001,-5.579026257102608e-17,0.9527463980645504
1.68,13.870948124471875,13.870948124471333,6.608872680907318,56.386457922891495,-4.564657846720315e-17,0.952044508796928
1.69,14.215980294212338,14.215980294211775,6.692415959392489,58.4304661842079,-7.100578872676047e-17,0.9513424549637505
1.7,14.567568655530602,14.567568655530021,6.776584618976097,60.535850985563556,-8.114947283058338e-17,0.950640239505
