{'wl': 8.421136460674157, 'aspect_ratio_func': 'dsr_thurai_2007', 'elevation': 90.0, 'canting': 10.0, 'prefactor': 0.05548070286560928, 'frequency': 35.6, 'n': (5.695519193854038+2.7772055098547335j), 'K2': 0.9117492415453236}
diameter[mm],radarXSh[mm2],radarXSv[mm2],extxs[mm2],ray[mm2],sKdp[mm2],aspect_ratio
0.01,5.5483082090984044e-14,5.5483082090981803e-14,6.487287218798462e-08,5.548070286560929e-14,6.3857758029080155e-24,1.0
0.02,3.5513723334147143e-12,3.551372333414572e-12,5.194281761718774e-07,3.5507649833989946e-12,0.0,1.0
0.03,4.046100715784385e-11,4.0461007157842225e-11,1.7555830521879438e-06,4.0445432389029155e-11,2.043448256930565e-22,1.0
0.04,2.274045096327136e-10,2.274045096327045e-10,4.169751819515445e-06,2.2724895893753565e-10,0.0,1.0
0.05,8.678131043887558e-10,8.678131043887211e-10,8.165146762635523e-06,8.668859822751453e-10,0.0,1.0
0.060000000000000005,2.592494570545214e-09,2.5924945705451103e-09,1.4154122038596688e-05,2.588507672897868e-09,0.0,1.0
0.06999999999999999,6.540932974898286e-09,6.540932974898024e-09,2.256056591646781e-05,6.527249211436062e-09,0.0,1.0
0.08,1.4583758497977506e-08,1.4583758497976919e-08,3.382235520113888e-05,1.4543933372002282e-08,-3.269517211088904e-21,1.0
0.09,2.9586908579547102e-08,2.9586908579545914e-08,4.839385769681187e-05,2.9484720211602253e-08,3.269517211088904e-21,1.0
0.09999999999999999,5.571810487558611e-08,5.571810487558386e-08,6.674851039918808e-05,5.548070286560925e-08,-6.539034422177808e-21,1.0
0.11,9.879636033949608e-08,9.879636033949209e-08,8.938149521321739e-05,9.828744944930164e-08,1.3078068844355616e-20,1.0
0.12,1.666854227457627e-07,1.6668542274575603e-07,0.0001168124199727468,1.6566449106546342e-07,0.0,1.0
0.13,2.697317739275831e-07,2.697317739275723e-07,0.0001495881853814004,2.6779475591804875e-07,1.3078068844355616e-20,1.0
0.14,4.2124872542485063e-07,4.2124872542483385e-07,0.0001882858924291868,4.1774394953190843e-07,1.3078068844355616e-20,1.0
0.15000000000000002,6.380470313361521e-07,6.380470313361267e-07,0.00023351579446386476,6.319598810785813e-07,0.0,1.0
0.16,9.410141309764965e-07,9.410141309764589e-07,0.00028592447643648863,9.30811735808146e-07,0.0,1.0
0.17,1.3557421648000735e-06,1.3557421648000193e-06,0.00034619810771192394,1.3391692935871422e-06,-2.615613768871123e-20,1.0
0.18000000000000002,1.9132073386336314e-06,1.9132073386335547e-06,0.0004150656654609316,1.887022093542546e-06,0.0,1.0
0.19,2.6505007843159308e-06,2.6505007843158257e-06,0.0004933025046038387,2.610138544811813e-06,0.0,1.0
0.2,3.6116154217222055e-06,3.6116154217220615e-06,0.0005817340279046514,3.550764983398995e-06,-5.231227537742246e-20,1.0
0.21000000000000002,4.84828463531694e-06,4.848284635316747e-06,0.0006812392091073787,4.758364675136895e-06,0.0,1.0
0.22,6.4208836213656756e-06,6.420883621365421e-06,0.0007927548506172623,6.290396764755305e-06,-5.231227537742246e-20,1.0
0.23,8.39938361788135e-06,8.399383617881017e-06,0.0009172792418920189,8.213135171055319e-06,1.0462455075484493e-19,1.0
0.24000000000000002,1.0864373371691459e-05,1.086437337169103e-05,0.001055876681717861,1.0602527428189667e-05,1.0462455075484493e-19,1.0
0.25,1.3908142044137797e-05,1.3908142044137243e-05,0.0012096817053427985,1.354509347304914e-05,0.0,1.0
0.26,1.763582602643439e-05,1.7635826026433695e-05,0.0013799037755630556,1.713886437875512e-05,0.0,1.0
0.27,2.2166618521568006e-05,2.2166618521567132e-05,0.0015678318131250987,2.1494361034258057e-05,0.0,1.0
0.28,2.763506665620253e-05,2.763506665620144e-05,0.0017748394840449504,2.673561277004214e-05,1.0462455075484493e-19,1.0
0.29000000000000004,3.419242863305889e-05,3.419242863305754e-05,0.0020023900497422426,3.300121592993595e-05,2.0924910150968985e-19,1.0
0.3,4.2008084957376266e-05,4.2008084957374606e-05,0.002252042035210392,4.044543238902915e-05,0.0,1.0
0.31,5.127108885003297e-05,5.127108885003095e-05,0.0025254543911677366,4.9239328017695485e-05,0.0,1.0
0.32,6.21917212188797e-05,6.219172121887728e-05,0.0028243929210079364,5.9571951091721346e-05,-2.0924910150968985e-19,1.0
0.33,7.500316643690084e-05,7.50031664368979e-05,0.003150735370677211,7.165155064854092e-05,2.0924910150968985e-19,1.0
0.34,8.996330101699793e-05,8.996330101699442e-05,0.003506479292397619,8.57068347895771e-05,0.0,1.0
0.35000000000000003,0.00010735651179210053,0.00010735651179209631,0.003893746368847926,0.00010198826892868859,0.0,1.0
0.36000000000000004,0.00012749562294667229,0.00012749562294666733,0.004314791207423669,0.00012076941398672295,0.0,1.0
0.37,0.00015072399549288657,0.00015072399549288072,0.004772007425108522,0.0001423483045321757,0.0,1.0
0.38,0.0001774175585901202,0.00017741755859011332,0.005267935091636268,0.00016704886686795604,0.0,1.0
0.39,0.00020798705470949263,0.00020798705470948455,0.005805268361446262,0.00019522237706425753,-4.184982030193797e-19,1.0
0.4,0.0002428804805477085,0.00024288048054769913,0.0063868629248993135,0.00022724895893753568,4.184982030193797e-19,1.0
0.41000000000000003,0.00028258529171298294,0.00028258529171297205,0.00701574469201765,0.0002635391219755916,0.0,1.0
0.42000000000000004,0.00032763124008334144,0.00032763124008332875,0.007695118482065471,0.00030453533920876127,0.0,1.0
0.43,0.0003785926499894796,0.000378592649989465,0.008428374251132364,0.00035071366502721087,0.0,1.0
0.44,0.0004360914305968582,0.0004360914305968415,0.009219099857448777,0.0004025853929443395,0.0,1.0
0.45,0.0005007999597137098,0.0005007999597136906,0.010071087661672315,0.00046069875330628535,0.0,1.0
0.46,0.0005734438320580155,0.0005734438320579936,0.010988343484272535,0.0005256406509475404,0.0,1.0
0.47000000000000003,0.0006548050634695362,0.0006548050634695112,0.01197509802195015,0.00059803844279267,0.0,1.0
0.48000000000000004,0.0007457254513591689,0.0007457254513591404,0.013035816297607798,0.0006785617554041387,-1.255494609058139e-18,1.0
0.49,0.0008471093402675154,0.0008471093402674831,0.01417520663566613,0.0007679243424762416,-8.369964060387594e-19,1.0
0.5,0.0009599280261858239,0.0009599280261857873,0.01539823134150433,0.000866885982275145,-8.369964060387594e-19,1.0
0.51,0.0010852219648313005,0.0010852219648312593,0.016710118646018797,0.0009762544150250264,0.0,1.0
0.52,0.0012241056266651571,0.001224105626665111,0.018116369708549643,0.0010968873202403277,0.0,1.0
0.53,0.0013777701986187013,0.0013777701986186493,0.019622775000850114,0.0012296943340041095,0.0,1.0
0.54,0.0015474887713971906,0.001547488771397132,0.021235418856905598,0.0013756391061925156,0.0,1.0
0.55,0.001734618298605462,0.0017346182986053968,0.022960692417549968,0.0015357413976453387,0.0,1.0
0.56,0.0019406053302459124,0.0019406053302458396,0.02480530756537758,0.001711079217282697,0.0,1.0
0.5700000000000001,0.0021669896268928495,0.0021669896268927684,0.02677630198586946,0.001902790999167813,2.510989218116278e-18,1.0
0.5800000000000001,0.0024154076580245897,0.0024154076580245,0.028881051154009366,0.002112077819515901,-1.6739928120775188e-18,1.0
0.59,0.0026875974117841657,0.0026875974117840655,0.031127283266014084,0.0023402056536491567,8.369964060387594e-19,1.0
0.6,0.002985402946353445,0.0029854029463533332,0.033523079392651034,0.0025885076728978658,8.369964060387594e-19,1.0
0.61,0.0033107780267140133,0.0033107780267138905,0.03607689437515263,0.002858386581447595,-1.6739928120775188e-18,1.0
0.62,0.003665789921702565,0.003665789921702429,0.03879755203856624,0.003151316993132511,0.0,1.0
0.63,0.004052625231676796,0.004052625231676646,0.04169426610548525,0.003468847848174795,1.6739928120775188e-18,1.0
0.64,0.004473592450961201,0.004473592450961036,0.04477663840915386,0.003812604869870166,0.0,1.0
0.65,0.0049311283204406305,0.004931128320440449,0.04805467091586809,0.004184293061219511,-1.6739928120775188e-18,1.0
0.66,0.00542779889692375,0.005427798896923551,0.05153876397681397,0.004585699241506619,1.6739928120775188e-18,1.0
0.67,0.005966305075298356,0.005966305075298137,0.05523972641815441,0.005018694622822019,1.6739928120775188e-18,1.0
0.68,0.0065494896433347626,0.006549489643334523,0.059168771786921696,0.005485237426532934,0.0,1.0
0.6900000000000001,0.007180332788291466,0.007180332788291204,0.06333753244405396,0.005987375539699329,0.0,1.0
0.7000000000000001,0.007891926891787325,0.007891926891787039,0.06780557815023383,0.00652724921143607,1.6739928120775188e-18,0.9944380500000001
0.7100000000000001,0.008634147642677042,0.008634147642676731,0.07249633674564063,0.007107093789221192,3.3479856241550376e-18,0.9938143084150001
0.72,0.009434569989446362,0.00943456998944602,0.07746386533284827,0.007729242495150261,0.0,0.9932232806400001
0.73,0.010296825325080073,0.010296825325079702,0.08272136197877647,0.008396129242136884,-3.3479856241550376e-18,0.9926640306150001
0.74,0.011224699542480631,0.011224699542480229,0.08828238927315323,0.009110291490059244,0.0,0.9921356202399999
0.75,0.012222140099662224,0.012222140099661785,0.09416089341426817,0.009874373141852823,-3.3479856241550376e-18,0.991637109375
0.76,0.01329325555908573,0.013293255559085256,0.10037115829166293,0.010691127479549187,-1.0043956872465113e-17,0.99116755584
0.77,0.014442318672552218,0.014442318672551706,0.10692781230242993,0.01156342014026089,-1.0043956872465113e-17,0.990726015415
0.78,0.015673755634569016,0.01567375563456846,0.11384578262516165,0.012494232132112482,0.0,0.9903115418399999
0.79,0.016992164645137097,0.016992164645136493,0.12114027097323073,0.013486662890117617,0.0,0.989923186815
0.8,0.018402298298693196,0.018402298298692544,0.12882673833605018,0.014543933372002283,-3.3479856241550376e-18,0.9895600000000001
0.81,0.01990907090660102,0.019909070906600317,0.13692085441421226,0.015669389193974124,0.0,0.9892210290150001
0.8200000000000001,0.021517547194902384,0.02151754719490162,0.14543845783477946,0.016866503806437862,3.3479856241550376e-18,0.9889053194399999
0.8300000000000001,0.02323295274707249,0.02323295274707166,0.1543955097231824,0.018138881709656857,1.0043956872465113e-17,0.9886119148149999
0.8400000000000001,0.02506065993315983,0.025060659933158945,0.1638080543447571,0.01949026170936072,-3.3479856241550376e-18,0.9883398566399999
0.85,0.02700618685528307,0.02700618685528212,0.17369216445236463,0.020924520212299087,-1.6739928120775187e-17,0.988088184375
0.86,0.029075183236749347,0.029075183236748323,0.18406385882733944,0.022445674561741496,6.695971248310075e-18,0.98785593544
0.87,0.031273437654520383,0.03127343765451929,0.1949390749085964,0.024057886412923293,0.0,0.987642145215
0.88,0.03360686641410135,0.03360686641410018,0.20633359386431613,0.02576546514843773,1.0043956872465113e-17,0.98744584704
0.89,0.03608150609677813,0.03608150609677687,0.21826292472709308,0.027572871333574153,0.0,0.9872660722150002
0.9,0.03870349788611091,0.03870349788610954,0.23074233259154872,0.029484720211602262,6.695971248310075e-18,0.9871018500000002
0.91,0.041479091956590164,0.04147909195658873,0.24378663002425383,0.031505785239002514,1.0043956872465113e-17,0.986952207615
0.92,0.0444146248586891,0.04441462485868756,0.25741021413104787,0.033641001660642586,-1.0043956872465113e-17,0.9868161702400001
0.93,0.047516521905181866,0.047516521905180215,0.27162694225840495,0.03589547012490002,3.3479856241550376e-18,0.9866927610150001
0.9400000000000001,0.0507912920758161,0.05079129207581433,0.28645002997938174,0.03827446033873088,0.0,0.9865810010400001
0.9500000000000001,0.05424549438214231,0.054245494382140436,0.30189200238659647,0.0407834147626846,0.0,0.9864799093750001
0.9600000000000001,0.05788575675101652,0.05788575675101452,0.3179646262066365,0.04342795234586488,1.339194249662015e-17,0.9863885030400001
0.97,0.06171876334247901,0.061718763342476855,0.3346788048516386,0.046213872300836664,2.0087913744930225e-17,0.9863057970150001
0.98,0.06575123030117057,0.06575123030116825,0.3520445254917263,0.04914715791847946,2.67838849932403e-17,0.98623080424
0.99,0.06998993179268025,0.0699899317926778,0.3700708037591905,0.05223398042278631,1.339194249662015e-17,0.986162535615
1.0,0.07444164027481161,0.07444164027480903,0.3887656287950914,0.05548070286560928,2.0087913744930225e-17,0.9861000000000001
1.01,0.07911318455758215,0.07911318455757937,0.4081358595812322,0.058893884061350904,2.0087913744930225e-17,0.986042204215
1.02,0.08401143091375836,0.08401143091375542,0.4281873145843919,0.06248028256160169,2.0087913744930225e-17,0.98598815304
1.03,0.08914325094761757,0.08914325094761445,0.44892454980206853,0.06624686066972384,2.0087913744930225e-17,0.9859368492149999
1.04,0.09451557408449836,0.09451557408449504,0.4703510544466255,0.07020078849538097,2.67838849932403e-17,0.98588729344
1.05,0.10013536655739275,0.10013536655738922,0.4924691507085429,0.07434944804901396,-6.695971248310075e-18,0.9858384843750001
1.06,0.1060096373295336,0.1060096373295298,0.5152799296254835,0.078700437376263,2.0087913744930225e-17,0.9857894186399999
1.07,0.11214545934850423,0.11214545934850026,0.5387834546071808,0.08326157473233567,6.695971248310075e-18,0.985739090815
1.08,0.11854999431733781,0.11854999431733362,0.5629786267900365,0.088040902796321,-6.695971248310075e-18,0.98568649344
1.09,0.12523051236934604,0.12523051236934157,0.5878634685309385,0.09304669292544994,6.695971248310075e-18,0.985630617015
1.1,0.13219440006742053,0.1321944000674158,0.613434906039486,0.09828744944930168,-2.67838849932403e-17,0.98557045
1.11,0.13944916946863195,0.13944916946862698,0.639689162000331,0.10377191400395613,6.695971248310075e-18,0.985504978815
1.12,0.14700255127308387,0.1470025512730786,0.6666216563896629,0.1095090699060926,1.339194249662015e-17,0.9854331878400002
1.1300000000000001,0.1548624833833871,0.15486248338338152,0.6942272659127618,0.11550814656703448,0.0,0.9853540594150003
1.1400000000000001,0.16303712936886644,0.16303712936886056,0.7225003906877898,0.12177862394674004,2.0087913744930225e-17,0.9852665738400002
1.1500000000000001,0.17153495156891996,0.17153495156891374,0.7514350498552844,0.12833023704773944,2.0087913744930225e-17,0.9851697093749999
1.1600000000000001,0.18036475313102432,0.18036475313101777,0.7810252489719811,0.13517298044901765,2.67838849932403e-17,0.9850624422400003
1.17,0.18953572416889608,0.18953572416888909,0.8112648987897161,0.14231711287984364,0.0,0.9849437466150002
1.18,0.19905744963345687,0.19905744963344954,0.8421481501695006,0.14977316183354603,6.695971248310075e-18,0.98481259464
1.19,0.2089399740140913,0.20893997401408362,0.8736695963887713,0.1575519282212336,2.67838849932403e-17,0.9846679564149999
1.2,0.2191939069062855,0.2191939069062773,0.9058242856196567,0.1656644910654634,2.0087913744930225e-17,0.9845088000000001
1.21,0.22983033768331462,0.22983033768330607,0.9386080501377211,0.17412221223385424,-1.339194249662015e-17,0.984334091415
1.22,0.24086108971151335,0.24086108971150438,0.9720177367432049,0.18293674121264608,1.339194249662015e-17,0.9841427946400002
1.23,0.25229849298651974,0.25229849298651025,1.0060509789705583,0.1921200199202062,0.0,0.9839338716150001
1.24,0.2641556970687809,0.26415569706877096,1.0407070742549545,0.2016842875604807,-1.339194249662015e-17,0.9837062822400001
1.25,0.27644661592075426,0.2764466159207437,1.0759864012543394,0.21164208551639282,0.0,0.9834589843749999
1.26,0.28918577660140216,0.28918577660139105,1.1118909626800408,0.22200626228318687,2.67838849932403e-17,0.9831909338400001
1.27,0.30238878034572975,0.30238878034571814,1.148424430673947,0.2327899784417184,2.67838849932403e-17,0.9829010844150002
1.28,0.31607197762831446,0.31607197762830225,1.185592266613731,0.24400671167169063,0.0,0.98258838784
1.29,0.3302525332010273,0.3302525332010145,1.2234018128776325,0.25567026180483676,-1.339194249662015e-17,0.9822517938149999
1.3,0.34494870741633354,0.34494870741632,1.2618622370266015,0.2677947559180487,2.67838849932403e-17,0.9818902499999999
1.31,0.36017967429069536,0.36017967429068115,1.300984736459559,0.2803946534664513,-1.339194249662015e-17,0.9815027020150001
1.32,0.37596551952836255,0.3759655195283477,1.3407826132694969,0.2934847514564236,5.35677699864806e-17,0.9810880934400001
1.33,0.392327420727627,0.3923274207276114,1.3812710828132253,0.3070801896585651,1.339194249662015e-17,0.980645365815
1.34,0.4092874923643126,0.4092874923642962,1.4224674897165968,0.32119645586060924,0.0,0.9801734586399999
1.35,0.4268690673083396,0.4268690673083225,1.4643912473061196,0.3358493911602821,1.339194249662015e-17,0.9796713093750001
1.36,0.4450963270526345,0.4450963270526166,1.507063647709741,0.3510551952981078,0.0,0.9791378534400004
1.37,0.4639946490320504,0.4639946490320316,1.5505081752928322,0.3668304320301595,0.0,0.9785720242150001
1.3800000000000001,0.48359038787329695,0.48359038787327724,1.5947498933086344,0.38319203454075706,2.67838849932403e-17,0.9779727530399999
1.3900000000000001,0.5039111614824406,0.5039111614824199,1.6398159862916502,0.40015731089511025,0.0,0.9773389692150002
1.4000000000000001,0.5249853691526295,0.5249853691526079,1.6857352186903876,0.41774394953190847,8.03516549797209e-17,0.9766696
1.4100000000000001,0.5468426901490485,0.5468426901490259,1.7325381175958152,0.4359700247958565,2.67838849932403e-17,0.9759635706149999
1.42,0.5695138538722496,0.5695138538722261,1.7802567794202158,0.4548540025101558,0.0,0.9752198042400002
1.43,0.5930306551778565,0.5930306551778317,1.8289246445982577,0.47441474558893404,1.339194249662015e-17,0.9744372220149999
1.44,0.6174259607500387,0.6174259607500128,1.8785766663129944,0.4946715196896167,2.67838849932403e-17,0.9736147430400003
1.45,0.6427336945677843,0.6427336945677573,1.9292489572886906,0.5156439989052487,0.0,0.9727512843750001
1.46,0.6689888115862082,0.6689888115861795,1.9809788469002967,0.5373522714967606,8.03516549797209e-17,0.9718457610400001
1.47,0.6962275459581674,0.6962275459581377,2.0338046513243744,0.5598168456651801,4.017582748986045e-17,0.9708970860149999
1.48,0.7244869279347133,0.7244869279346822,2.0877656034138363,0.5830586553637916,4.017582748986045e-17,0.96990417024
1.49,0.7538052365200374,0.7538052365200052,2.1429016878667753,0.6070990661502398,-2.67838849932403e-17,0.968865922615
1.5,0.7871106825015468,0.7871106825015126,2.201610124185494,0.6319598810785807,1.339194249662015e-17,0.9646504406249999
1.51,0.8183865652178163,0.8183865652177806,2.259004488829873,0.6576633466312785,0.0,0.9639518083123905
1.52,0.8507590819278654,0.8507590819278288,2.3176254951777935,0.684232158691148,6.695971248310075e-17,0.9632529599508479
1.53,0.8842602533897103,0.8842602533896718,2.377506346413453,0.7116894685532442,4.017582748986045e-17,0.9625538986474304
1.54,0.9189218871266767,0.9189218871266366,2.4386789618848614,0.7400588889766969,9.374359747634105e-17,0.961854627499368
1.55,0.9547766068798592,0.9547766068798174,2.5011754259763275,0.7693645002764921,4.017582748986045e-17,0.9611551495940623
1.56,0.9918566972322715,0.9918566972322282,2.565026774135081,0.7996308564551988,4.017582748986045e-17,0.9604554680090879
1.57,1.0301940614776235,1.0301940614775782,2.6302629584174877,0.830882991374643,5.35677699864806e-17,0.9597555858121904
1.58,1.0698214270422783,1.0698214270422313,2.69691338557446,0.8631464249675275,6.695971248310075e-17,0.959055506061288
1.59,1.1107707223713137,1.1107707223712648,2.765006502444626,0.8964471694889959,5.35677699864806e-17,0.9583552318044705
1.6,1.1530741472174906,1.1530741472174393,2.8345693126483473,0.9308117358081461,1.339194249662015e-16,0.95765476608
1.61,1.1967634888377199,1.196763488837667,2.905627746686511,0.9662671397394874,1.071355399729612e-16,0.9569541119163105
1.62,1.2418705741770297,1.2418705741769742,2.9782066663314253,1.002840908414344,5.35677699864806e-17,0.9562532723320079
1.6300000000000001,1.2884270042401664,1.288427004240109,3.0523293375453595,1.0405610866922055,5.35677699864806e-17,0.9555522503358704
1.6400000000000001,1.336463848771184,1.3364638487711245,3.128017707932887,1.0794562436120232,2.67838849932403e-17,0.9548510489268479
1.6500000000000001,1.386012030440463,1.3860120304404009,3.205292379962828,1.119555478883452,1.339194249662015e-16,0.9541496710940625
1.6600000000000001,1.437102426176039,1.4371024261759748,3.284172484217998,1.1608884294180388,1.071355399729612e-16,0.953448119816808
